t_ms,emg0,emg1,emg2,emg3,emg4,emg5,emg6,emg7
0.0,0,-1,1,0,0,1,0,-1
0.0,2,-2,11,5,1,2,-3,1
19.27,1,-3,0,1,0,2,0,-1
19.27,-3,1,-6,-1,-1,-3,-1,-1
19.27,0,0,-3,-2,-1,-3,1,1
19.27,4,0,5,1,-3,1,-3,0
20.357,-2,1,-4,0,0,0,-2,0
20.357,-2,-1,-2,-1,2,-2,2,-1
21.527,-1,-1,-3,-1,0,-1,-1,-2
21.527,1,3,0,0,-2,-1,0,-1
29.648,1,0,1,1,-1,1,-3,0
29.648,-4,-1,-3,-4,1,-2,0,-1
36.24,0,2,-2,-1,0,-2,-1,1
36.24,1,2,0,-1,0,-1,-2,-2
51.105,1,-5,-2,3,-1,-1,0,0
51.105,-2,4,-8,-2,-2,0,1,0
67.811,0,-3,-2,-1,1,-1,0,-1
67.811,2,2,-1,-1,0,1,-2,-2
74.214,-1,-3,1,0,0,1,2,-1
74.214,0,-1,-3,0,-1,0,-1,-1
83.562,1,3,-2,-3,-3,1,0,-1
83.562,2,2,4,-1,0,0,-2,0
98.586,0,0,-1,-2,-1,-2,0,0
98.586,-2,-2,-3,-2,0,0,0,1
100.726,-2,-1,-1,-2,-2,0,-1,-1
100.726,-2,-1,1,0,-1,-1,-2,0
118.683,-1,1,0,-1,-2,0,-2,1
118.683,0,-6,2,1,0,0,0,0
151.099,1,2,-4,-1,-2,0,0,-1
151.099,-3,1,-8,-2,2,-1,3,-2
157.796,-1,-1,-4,-1,0,-1,1,-2
157.796,3,-1,6,3,-1,0,-3,1
157.796,-1,-2,0,0,-1,1,-3,1
157.796,-3,-15,11,2,1,2,4,1
158.837,-3,3,-4,-2,-1,-1,-1,0
158.837,3,4,1,-1,-3,1,-3,-1
165.136,2,-2,8,1,-1,1,0,0
165.136,1,2,-7,-1,-2,-1,0,-2
178.734,-2,6,-10,-5,0,-3,-1,0
178.734,1,-3,5,1,-1,1,-3,-1
187.88,1,6,-2,1,-4,0,-1,-1
187.88,-2,-1,-1,-1,-1,0,-1,0
201.423,-1,-2,-4,-1,0,0,0,1
201.423,2,3,0,-3,0,-2,-4,-2
208.603,-4,-4,6,-1,-4,-2,0,0
208.603,-1,0,-4,-1,1,0,3,1
224.676,-2,-3,2,1,-1,-2,0,-1
224.676,0,-3,3,0,-1,2,-1,1
231.185,1,-1,-1,0,-1,-1,-1,0
231.185,-3,-3,-1,0,-1,-2,0,1
247.833,-2,-11,16,2,-1,0,0,1
247.833,-1,2,-4,-1,1,0,2,-1
248.992,-1,2,-1,-1,0,0,0,-1
248.992,-2,3,-8,-3,-1,-1,-1,-2
276.764,0,-12,7,2,2,0,0,1
276.764,0,2,-2,-2,-2,-1,-1,1
279.207,-2,-2,-1,-1,3,0,0,-1
279.207,0,1,-5,-2,-2,-1,-1,-1
284.361,1,4,-4,-1,0,0,1,-2
284.361,0,-3,5,1,0,-1,0,-1
291.044,0,-2,-6,0,0,2,-2,1
291.044,0,2,2,0,-3,-2,0,0
306.926,0,3,-3,-1,1,2,0,-2
306.926,-1,-1,3,1,-1,2,-1,-1
309.213,1,0,-3,1,1,-1,1,-2
309.213,1,-1,-2,-2,0,0,-1,1
329.965,1,2,-3,-2,1,0,-2,0
329.965,1,0,0,0,-2,-1,2,1
331.151,1,-3,2,-2,0,0,0,0
331.151,0,-1,-2,0,1,0,0,-3
345.153,1,4,-1,2,-1,-1,-1,-1
345.153,-2,1,-1,1,-2,1,0,-1
351.292,0,-1,1,0,1,1,-1,2
351.292,2,2,-4,-1,-1,-2,-2,0
367.875,-4,-15,16,7,4,6,2,-1
367.875,1,1,-2,1,-1,-2,-1,0
368.921,-1,1,-1,0,-2,0,0,-2
368.921,-1,-2,-1,1,-1,0,-1,1
389.188,2,2,-5,-3,-2,0,0,-1
389.188,-1,-3,0,0,0,2,-2,0
404.739,-2,-1,6,3,3,0,-1,0
404.739,-2,3,-2,-1,-1,0,1,0
405.792,-1,4,-8,-4,-2,-5,-1,1
405.792,0,-4,3,0,1,1,0,-2
411.505,0,1,-4,-1,-3,-1,-1,1
411.505,-1,-2,2,0,0,1,1,-1
427.248,3,4,-4,-1,-1,-1,-1,0
427.248,-1,-2,2,-1,1,1,0,0
429.242,1,-1,0,-1,0,-1,-3,-2
429.242,0,-2,2,-2,0,0,0,-1
450.288,-1,2,2,-3,-1,1,-1,0
450.288,0,2,-2,-4,-2,-1,-2,-1
451.297,0,0,-1,-1,-2,-1,0,-2
451.297,1,1,-1,2,0,0,-4,1
463.31,0,9,-4,-2,1,-1,0,0
463.31,2,1,-1,-2,0,-2,-1,0
472.799,0,1,-2,-2,0,1,-1,-1
472.799,0,3,3,0,-1,-1,1,-2
487.709,0,3,-1,-1,0,-1,-3,0
487.709,0,0,1,0,0,0,1,1
488.79,1,-3,1,1,3,1,1,0
488.79,1,1,-3,-2,-1,-2,0,0
510.385,-2,-5,3,-1,-1,-1,-1,0
510.385,-2,0,1,1,0,0,-2,-1
511.382,-1,2,-2,-2,0,-1,-1,1
511.382,-2,0,0,-1,1,0,0,-1
523.381,2,-2,-2,1,-2,0,0,-1
523.381,1,-3,1,1,1,0,-1,0
532.16,1,-1,0,-1,-1,0,0,0
532.16,-1,-2,1,-2,0,1,-1,1
547.116,-2,-1,1,0,1,1,1,0
547.116,0,2,-3,0,-2,-1,-1,-2
549.266,0,0,-1,-1,1,-1,1,-1
549.266,-1,-3,5,0,0,-1,-2,0
569.854,1,-1,0,-2,0,-2,1,0
569.854,0,1,-1,-1,-1,0,0,-1
572.355,-2,0,1,-1,-1,1,-1,0
572.355,1,3,-1,-1,0,0,-2,0
582.976,1,0,-1,0,-2,-2,1,0
582.976,-1,0,-1,-1,-1,-1,0,-2
592.536,0,0,3,0,-1,-1,1,-1
592.536,-1,-1,-6,-1,0,0,1,-1
607.111,1,-1,-1,-2,-1,2,-2,0
607.111,0,0,2,1,0,0,0,1
609.136,0,5,-7,-3,-2,-3,-2,-1
609.136,-2,-4,-2,1,2,0,2,0
629.573,1,0,1,-1,0,-1,-1,-2
629.573,0,-2,1,-2,-1,-3,0,0
631.566,1,-4,1,-1,-1,1,-2,-1
631.566,-1,0,2,-1,0,0,1,0
643.732,-3,0,-1,0,1,-1,-2,0
643.732,0,1,-1,0,1,1,1,1
652.381,0,-5,8,3,-1,-1,0,0
652.381,2,1,-2,-1,-2,-2,-1,-1
667.538,0,0,3,1,-3,1,-2,-2
667.538,-1,-1,0,0,-1,-1,0,1
668.548,-1,-1,-2,0,-1,-1,0,0
668.548,-3,-2,-1,0,0,-1,0,0
689.575,0,3,3,1,1,-3,-1,0
689.575,-1,-1,-2,-3,-1,1,1,1
696.304,-1,-1,-4,-3,0,-1,-2,-1
696.304,0,-2,-3,-2,0,-1,-2,0
703.616,3,2,-5,-3,0,0,-1,-1
703.616,0,1,0,0,-1,-1,0,-1
712.404,-1,0,-2,-1,2,0,1,0
712.404,1,-1,-1,1,0,0,-3,-1
726.964,-1,0,4,1,0,0,-1,-1
726.964,0,-2,-3,0,0,-1,-1,1
728.977,-1,1,-2,0,-1,-2,0,-1
728.977,1,2,0,-2,-1,0,1,-2
749.985,-2,-2,-1,-1,-3,1,1,0
749.985,0,0,0,1,1,0,-1,-2
750.991,0,2,-5,-1,-1,0,-1,1
750.991,1,-4,3,3,1,0,0,2
772.843,0,-2,0,0,0,-1,-2,-1
772.843,-1,-1,-2,-1,-2,-1,-1,-1
774.061,1,5,-5,-1,0,0,0,1
774.061,-1,-1,2,-2,0,0,-1,-1
787.112,2,0,0,0,-1,1,1,1
787.112,-1,-3,1,-1,0,-1,0,0
789.112,-2,-1,1,0,0,-1,-3,-1
789.112,-2,-1,0,-3,-1,-1,0,0
810.032,0,-1,0,1,-1,-1,-2,-1
810.032,0,0,-1,1,0,1,0,1
812.026,0,-1,1,1,-2,-3,1,-1
812.026,0,-1,0,-1,-2,-1,0,-1
823.748,-1,-2,0,0,0,-2,-2,0
823.748,-2,1,0,0,1,0,0,-1
831.931,-1,-2,1,1,0,-1,2,0
831.931,-1,-1,-2,-1,0,-1,0,1
847.631,-1,1,0,0,-2,0,0,-1
847.631,0,-2,1,0,0,1,-2,-1
849.014,-1,-3,-4,-2,-3,-2,0,0
849.014,-1,-5,6,4,1,0,-1,1
870.315,-1,0,-2,-3,-2,0,1,1
870.315,0,-1,-1,-1,0,-1,-1,-1
871.414,1,-6,6,1,2,1,0,-1
871.414,2,3,-3,-2,-3,-2,-1,-1
883.193,1,-1,2,1,-1,0,1,0
883.193,-1,0,2,0,-2,1,-1,0
909.953,-1,1,-1,0,0,-1,0,0
909.953,-1,0,-2,-1,-2,-1,0,-1
910.573,-1,-2,0,1,0,1,-1,2
910.573,0,0,-3,-2,1,-2,-2,-1
913.804,0,1,0,2,-1,1,1,0
913.804,0,0,-3,-1,0,-1,0,-1
929.487,0,1,-3,1,-1,-1,2,0
929.487,-1,2,2,0,-3,-2,-2,-1
931.515,-1,2,1,-2,-1,0,-2,-1
931.515,1,1,0,-2,-1,-2,-2,-1
952.906,-1,0,0,-2,2,0,0,-1
952.906,-1,0,0,0,2,-1,0,0
954.127,-2,0,-2,-1,-1,-1,1,-1
954.127,-2,0,-2,0,0,1,0,-1
967.817,3,0,0,-3,-3,1,-2,0
967.817,-2,-2,-2,-2,0,1,0,0
968.867,-1,-2,0,2,-1,1,0,-1
968.867,-3,-6,2,1,0,0,-2,2
990.218,0,-1,6,0,2,0,-2,-1
990.218,-1,0,-2,1,-1,-1,2,1
991.23,-2,0,-4,0,0,0,2,0
991.23,-1,-5,6,3,-1,-1,1,0
1012.611,0,0,1,-1,0,-1,0,-1
1012.611,-1,-1,0,0,0,-1,0,-2
1013.611,-1,-3,-4,-2,-1,-2,0,-1
1013.611,1,2,-3,-1,-2,2,1,0
1027.118,-1,-1,5,2,1,1,-2,-1
1027.118,1,-4,0,0,2,1,1,1
1029.177,-1,-5,0,0,-1,0,1,1
1029.177,0,3,0,-1,-1,-1,0,0
1048.826,-1,1,0,0,-2,0,0,-1
1048.826,-1,0,-2,-1,-3,0,1,-2
1057.27,0,-1,-1,0,1,0,0,0
1057.27,-4,-7,3,-1,2,2,-1,0
1071.505,0,1,-2,-1,1,-1,-1,0
1071.505,1,0,1,0,0,0,2,1
1074.112,0,-1,-1,0,0,0,-1,0
1074.112,-1,2,-1,-1,-1,0,-1,0
1086.57,-1,-3,-3,1,-1,0,0,1
1086.57,0,0,0,1,-1,-1,0,1
1093.547,1,-1,-1,-2,-1,0,0,-1
1093.547,-1,2,0,0,1,0,0,-1
1109.87,0,0,2,-1,-2,1,-4,-1
1109.87,0,0,-4,0,-1,-1,-1,-2
1110.893,-1,0,-1,0,0,-2,0,0
1110.893,1,2,-3,-2,0,-3,0,-2
1132.082,0,-1,-1,0,0,-1,2,0
1132.082,-1,-1,0,0,-1,-1,-1,-1
1134.081,0,2,1,0,0,1,-2,-2
1134.081,0,0,0,-1,0,-1,-1,-1
1154.979,-2,0,-1,-1,-2,-2,1,0
1154.979,0,1,-3,-3,-2,0,0,0
1156.334,-1,1,0,-1,-1,0,1,1
1156.334,0,1,-7,-2,-1,0,-1,-2
1177.971,2,-6,6,1,0,0,0,0
1177.971,0,0,-1,0,-1,-1,0,-2
1179.043,1,1,1,-2,-1,-2,0,-1
1179.043,1,1,-1,0,0,-1,0,-2
1192.766,-1,1,-7,-4,-3,1,-1,-3
1192.766,-1,-8,8,5,2,2,0,-1
1193.763,1,0,0,-1,1,-2,0,0
1193.763,0,0,1,0,-2,0,-1,-1
1215.224,-2,0,-2,0,0,0,-1,2
1215.224,-1,-1,0,-1,0,-2,-1,0
1216.232,-2,1,-1,-1,-1,0,-1,1
1216.232,0,0,0,1,0,-2,-1,1
1228.975,1,0,3,1,-2,1,1,-1
1228.975,-1,1,-2,-2,-1,0,2,2
1238.028,1,-2,1,-1,1,-1,2,-1
1238.028,1,-1,-3,0,0,0,0,-2
1252.244,1,2,1,-1,0,0,0,0
1252.244,-2,1,-4,-3,-3,-1,-4,-2
1259.651,-2,1,1,-1,0,-1,-2,-2
1259.651,-2,-1,1,0,1,1,0,0
1275.38,0,-1,0,1,2,-2,2,-1
1275.38,0,1,-3,-1,-1,-1,1,-2
1276.727,-1,-2,-1,-1,-3,0,0,1
1276.727,1,3,0,-2,-1,-1,-2,0
1288.204,0,2,1,0,-1,-2,0,-2
1288.204,1,2,-5,-2,0,-2,-2,-1
1297.151,-1,-3,2,0,0,2,1,1
1297.151,0,-1,-5,0,-2,-1,0,-2
1311.908,-1,-4,5,3,3,2,0,0
1311.908,2,0,-4,-1,2,-2,-5,0
1314.221,0,1,0,-2,0,0,-1,-2
1314.221,2,-1,0,-1,0,-1,-2,-1
1334.889,-3,0,-1,0,-2,-1,-1,-1
1334.889,-3,-1,-3,-1,-2,1,0,-2
1335.886,0,0,-1,1,-1,-1,-1,-2
1335.886,-2,-2,1,0,0,-1,0,0
1348.278,-1,1,-1,0,0,-1,-1,-1
1348.278,0,0,0,1,-1,-1,0,1
1365.033,1,2,-4,-3,0,0,-1,1
1365.033,1,2,2,-1,-1,0,-1,1
1379.162,0,-1,-7,-3,-1,0,-1,0
1379.162,-1,1,2,-1,-1,-1,2,0
1381.542,-1,0,-2,-1,-1,1,-2,0
1381.542,0,0,2,2,-1,0,1,0
1393.559,2,-2,-1,-2,-1,-2,-2,1
1393.559,-1,-1,0,-2,-1,2,-1,-1
1402.662,1,-1,0,-1,0,-1,2,-1
1402.662,-1,3,-2,-3,-1,-2,-2,-1
1416.846,2,2,-1,0,0,-2,0,-1
1416.846,2,0,4,1,-2,-1,1,0
1419.321,-2,-4,-2,0,-1,0,-3,1
1419.321,-1,-2,2,-2,0,-1,0,0
1431.902,-1,0,-1,1,1,1,-1,0
1431.902,0,-2,-2,1,0,0,-2,1
1433.384,0,2,-1,-3,-1,-2,1,0
1433.384,0,-2,3,2,2,1,0,2
1455.734,-1,-1,0,0,0,0,-1,-1
1455.734,-1,-3,1,1,1,0,2,-2
1456.731,-2,0,0,2,0,0,0,0
1456.731,1,1,1,-3,-3,-1,-2,1
1477.214,1,0,0,-1,-1,0,1,1
1477.214,-2,-2,1,2,-2,-1,1,2
1479.386,-1,0,0,0,1,1,-1,0
1479.386,-1,-1,0,0,-3,0,0,-2
1492.942,-3,3,-3,-1,-2,0,-1,1
1492.942,2,0,-7,-2,0,-1,-2,0
1494.429,-1,-8,9,4,4,2,0,0
1494.429,-1,-1,0,0,1,-1,0,-1
1515.316,-1,-3,0,-1,-1,0,0,-2
1515.316,1,2,-3,1,-1,0,-1,0
1516.629,0,1,-3,-1,-2,-1,1,-1
1516.629,1,0,0,0,-1,1,0,-1
1537.932,-3,-3,2,0,0,2,0,0
1537.932,-1,-1,1,-1,1,-1,1,1
1538.938,1,2,-5,-2,-1,-1,-1,-1
1538.938,0,2,-2,-1,1,0,1,0
1552.155,0,1,2,0,-1,-1,-2,0
1552.155,-4,2,0,0,-1,-1,0,0
1553.353,0,0,-3,-3,-2,-3,-2,-1
1553.353,0,-1,-2,-2,0,0,0,-1
1575.023,-1,0,2,1,-3,1,1,2
1575.023,1,-2,1,0,-1,2,-2,0
1576.028,-1,0,-2,2,1,0,0,0
1576.028,-1,-5,1,1,0,1,-2,0
1604.415,1,-1,-1,-1,1,2,0,-2
1604.415,-2,-1,2,-2,0,-1,0,0
1606.409,-2,-2,-3,0,-2,-2,1,1
1606.409,1,-1,4,1,0,-2,0,-1
1611.586,0,1,0,1,1,-1,-5,-1
1611.586,1,0,-1,-1,-1,1,3,0
1618.375,-1,1,-1,-2,-1,-2,-1,0
1618.375,1,-2,5,2,1,1,1,0
1635.202,3,0,-2,0,-1,-1,-2,1
1635.202,-1,-2,-3,-1,-1,0,-1,0
1636.222,-2,0,0,0,-1,0,-1,1
1636.222,-3,-1,-10,-3,-2,-2,-2,-1
1657.955,-2,-3,3,2,0,-2,2,-1
1657.955,-2,-1,0,-1,3,-2,-2,1
1659.501,-2,0,-2,-2,0,1,-1,-1
1659.501,3,0,-2,-1,0,-1,0,0
1679.428,1,-1,-1,-3,0,-1,-2,-2
1679.428,0,2,0,-3,-1,0,0,1
1681.421,0,-4,1,0,0,-1,1,-1
1681.421,0,1,3,0,-2,2,-2,0
1694.806,0,-2,-2,0,0,-1,-1,-1
1694.806,-2,0,2,0,-1,0,-2,-1
1695.826,1,1,-3,1,-1,0,1,0
1695.826,-1,1,0,1,0,-1,0,1
1717.597,-1,0,0,-1,0,0,0,1
1717.597,-1,1,-4,-1,-3,0,0,-3
1718.618,1,1,-1,-1,-2,-2,0,-1
1718.618,-1,1,-2,-2,-1,0,-1,1
1732.014,0,-1,0,0,-2,-1,-2,0
1732.014,2,-2,-1,0,1,-2,-1,-1
1738.957,0,1,-2,-1,0,3,0,1
1738.957,-1,-3,4,2,2,-1,1,3
1754.12,1,1,2,1,1,0,2,-1
1754.12,1,-2,0,-1,-1,0,0,-2
1757.008,-1,0,-4,-1,1,-1,-1,-1
1757.008,1,-4,-1,0,0,-1,0,-1
1783.615,1,-1,0,-2,-3,-1,-1,0
1783.615,0,-1,-1,0,-2,-1,-1,2
1793.78,0,-2,-1,-2,-1,0,-1,-1
1793.78,0,5,1,1,-1,1,0,1
1794.901,0,0,-2,0,-1,-1,-1,0
1794.901,-1,-1,1,0,0,1,1,-1
1798.157,-1,-2,-1,-3,0,-2,0,-2
1798.157,1,0,0,0,0,0,0,-1
1814.445,1,-1,-3,0,0,-1,0,1
1814.445,-3,-3,-1,2,1,1,0,-2
1816.968,-1,-4,3,2,-1,-1,0,-1
1816.968,1,1,-1,-2,-1,0,-2,-1
1837.928,-2,-1,-3,-1,0,1,-1,2
1837.928,0,-3,3,1,1,0,-1,0
1839.039,-2,0,5,0,1,-2,2,0
1839.039,-1,0,-4,1,-2,-1,-1,-2
1851.368,1,1,3,0,-3,1,-1,-1
1851.368,-2,-1,-3,-1,2,1,-1,0
1859.068,2,1,-3,1,0,0,2,1
1859.068,-2,-3,1,-1,0,-1,-1,-2
1874.184,-2,2,-3,-1,0,1,0,-1
1874.184,1,0,1,1,-3,-3,1,-1
1882.377,-2,0,0,-2,0,2,0,0
1882.377,-1,1,0,0,-1,0,-1,-1
1897.541,0,-1,1,1,1,-2,0,1
1897.541,0,-3,6,0,0,-1,1,0
1898.558,-1,-5,-1,-1,0,-1,-1,-1
1898.558,0,1,-2,-1,-2,-2,1,2
1919.784,0,0,0,0,0,0,0,-2
1919.784,0,2,-5,-1,-2,-1,-1,0
1921.11,-1,0,-3,-1,0,-2,0,0
1921.11,2,0,8,0,-2,1,1,1
1942.716,-1,-1,-2,-1,-1,0,-1,-2
1942.716,-1,0,-6,-1,1,-2,0,2
1942.716,1,1,1,2,1,1,-1,1
1942.716,0,4,-5,-2,-2,-3,-2,-3
1956.841,0,-7,6,3,0,-2,1,1
1956.841,1,1,1,2,0,1,0,-2
1956.841,-1,-1,-3,-1,-3,-1,0,0
1956.841,1,-2,-1,0,-1,2,0,0
1979.44,1,5,-4,-2,-4,-3,-2,-2
1979.44,0,-1,-3,-2,1,1,3,-1
1980.454,0,4,0,-4,-1,-1,-4,-2
1980.454,-1,1,0,-1,1,-1,-3,0
1994.306,-1,-6,6,1,0,-1,2,1
1994.306,-1,4,2,-1,-4,-1,1,0
1994.306,2,1,-1,-1,-1,0,-1,-1
1994.306,1,-2,4,1,1,0,-2,-1
2016.989,0,0,-2,-1,0,0,-1,0
2016.989,-1,-1,-3,0,0,0,-1,-1
2016.989,0,-1,0,1,-1,0,0,-2
2016.989,-1,0,-2,0,-1,-2,0,-2
2040.428,0,1,0,0,2,1,-1,-1
2040.428,-3,-1,-3,0,1,-2,0,0
2040.428,-1,2,-5,-2,-1,1,0,0
2040.428,-1,-1,4,4,0,-1,1,0
2054.324,-1,4,-4,-3,-2,-1,-3,-2
2054.324,-2,-1,0,-1,-2,-1,0,-1
2055.401,0,-1,-1,-1,1,-1,-3,1
2055.401,-2,0,-1,-1,-2,0,1,-2
2077.179,1,0,-1,0,-1,1,0,0
2077.179,1,-1,-1,0,-1,-2,-1,0
2077.179,-3,-1,0,-1,-2,-1,0,-1
2077.179,-2,1,0,-1,-1,-3,-1,0
2092.787,0,1,-5,-2,-2,-1,-2,-1
2092.787,-1,-3,0,0,-1,-1,1,-1
2099.043,0,0,-2,2,2,1,0,-1
2099.043,1,-1,5,-2,-1,2,-1,1
2113.803,-2,-4,3,1,0,-1,0,0
2113.803,-1,1,-1,0,-1,-3,-1,0
2114.957,0,-2,0,0,1,-3,1,-2
2114.957,0,0,-1,-2,-3,-1,-2,0
2145.147,0,-1,0,1,1,0,0,-1
2145.147,0,-1,-5,-3,-1,0,0,-1
2146.17,-2,-4,5,2,2,0,1,0
2146.17,0,-2,-3,-2,1,-1,-1,-1
2167.078,-2,0,5,2,0,1,-2,-2
2167.078,0,-2,-3,-1,1,0,0,0
2168.09,-1,2,-1,-1,-3,-3,1,0
2168.09,0,0,1,2,0,0,-3,0
2174.583,0,-4,-2,-1,-1,-3,-1,-1
2174.583,0,-1,-2,-2,1,1,-2,0
2174.583,-1,-1,-1,-1,0,-1,1,-1
2174.583,1,0,1,-2,-2,1,0,-1
2196.596,0,2,1,-2,0,0,0,-2
2196.596,0,1,-2,0,-2,-1,-1,-1
2197.904,1,1,-3,-2,-2,-3,0,-1
2197.904,1,2,3,4,0,-1,2,0
2211.32,0,-3,-1,0,0,1,-1,-2
2211.32,-3,-1,-2,-2,-2,-1,0,0
2219.602,1,1,1,0,-1,1,-1,1
2219.602,0,-2,-1,-2,-3,-2,-1,-1
2234.643,-1,0,-1,0,2,1,1,1
2234.643,-1,1,1,-1,-1,0,1,1
2235.667,-2,-1,0,0,-1,-1,-2,0
2235.667,0,-1,0,0,1,1,-1,-1
2257.128,-2,-1,-3,-1,-2,2,-1,-1
2257.128,0,1,3,-1,0,-1,-2,1
2257.128,0,-2,-2,0,-1,-2,-1,-1
2257.128,-2,-1,-1,0,1,0,0,1
2296.748,1,2,-5,-3,-3,-2,0,-1
2296.748,-3,-4,1,2,4,3,-1,-1
2296.748,0,2,-1,-2,0,1,2,-1
2296.748,-1,-3,0,1,-1,0,0,-1
2298.113,0,0,-3,0,-1,-2,-2,-2
2298.113,-1,-2,-2,-1,0,-2,-1,-1
2301.428,-1,1,-1,-2,0,-2,0,0
2301.428,1,1,0,1,0,-1,1,-1
2316.325,1,0,3,0,-1,0,1,0
2316.325,-2,0,2,1,-1,0,0,0
2317.375,0,0,0,2,-1,1,1,0
2317.375,-1,0,-3,-1,2,1,-1,0
2340.969,-2,-1,1,0,-1,0,1,0
2340.969,0,1,2,-1,0,0,1,1
2340.969,-1,-1,-4,-2,0,-2,-3,1
2340.969,0,0,3,1,0,-1,1,-1
2354.217,-3,-4,5,3,1,0,0,1
2354.217,0,2,-4,-2,-1,-1,0,0
2361.672,-1,-1,1,-1,0,0,-2,1
2361.672,0,-1,1,1,0,1,-2,0
2376.865,-3,-2,-1,-2,1,-2,1,0
2376.865,0,0,-2,-2,0,0,1,-1
2377.862,0,-1,2,1,-2,0,1,-1
2377.862,-1,1,-1,0,-1,0,-3,0
2399.826,2,1,-2,0,0,1,-1,0
2399.826,-1,-3,-4,-1,-1,-4,-1,-2
2400.872,-2,-2,3,-1,1,1,0,-1
2400.872,0,0,-2,-2,2,-3,2,1
2414.9,-1,1,-1,0,1,-1,0,2
2414.9,-1,-3,1,3,1,0,0,0
2415.906,0,0,-2,0,1,1,-1,-3
2415.906,2,2,-1,1,-1,-1,-2,1
2436.986,0,-3,2,1,1,1,-1,-1
2436.986,1,3,-1,-1,0,-1,-1,0
2437.984,0,1,-2,-1,-1,-1,-1,-2
2437.984,-1,0,-2,0,-3,0,0,0
2459.822,-2,2,-3,-1,-3,-1,-1,-1
2459.822,0,0,1,0,-1,1,0,-1
2460.833,1,0,2,0,0,0,0,-2
2460.833,0,-5,2,-1,1,0,-2,-1
2474.343,2,1,2,0,0,0,-1,-3
2474.343,-1,-2,2,1,0,-1,0,-1
2475.375,-2,2,-2,-3,-1,-1,1,0
2475.375,-1,1,-1,0,-1,-1,-1,0
2497.724,-3,-4,0,-2,-1,-1,0,1
2497.724,3,4,-10,-3,-3,-2,-2,0
2498.739,2,-1,1,1,3,1,1,0
2498.739,-1,0,0,0,-1,1,0,0
2519.71,-1,-2,1,1,0,0,0,0
2519.71,-1,2,1,0,1,0,1,-1
2520.917,-3,-3,-2,1,-3,-1,-1,0
2520.917,-1,-4,2,-2,0,0,0,-1
2534.236,3,2,0,1,-1,-1,-1,0
2534.236,-2,-4,-1,2,1,0,1,0
2534.236,0,1,2,0,-1,0,-2,0
2534.236,1,0,3,2,0,-2,-2,-1
2556.366,-1,3,-4,0,0,-1,0,-1
2556.366,-2,-1,-1,-1,1,1,2,0
2557.432,-1,-1,4,0,-1,1,0,0
2557.432,1,0,-3,-2,-3,0,-1,0
2580.37,-2,2,-4,-1,0,-2,-1,-2
2580.37,-2,0,-1,0,0,-2,1,0
2580.37,-1,1,-4,1,-1,0,-2,-1
2580.37,-1,0,3,1,0,1,0,-2
2594.423,2,1,-3,1,-1,0,0,1
2594.423,-1,-1,-1,0,-2,-1,-1,0
2595.451,0,1,-1,-3,-2,-1,-3,-2
2595.451,-1,-1,0,-2,0,2,1,-1
2625.589,0,-1,1,-2,0,0,0,-1
2625.589,1,-1,3,-4,-2,-2,0,-2
2626.588,0,2,-3,-1,-3,-1,1,-2
2626.588,1,-1,-1,-1,2,1,0,0
2639.939,-2,-2,0,-1,-1,-1,-1,0
2639.939,-1,3,-2,-1,2,0,-2,0
2641.004,-1,-2,-1,0,0,-1,-1,1
2641.004,-2,-1,3,1,0,0,0,0
2654.36,0,-3,-4,0,-2,-1,-1,-2
2654.36,0,-2,2,0,-2,-2,-2,-1
2655.4,0,-1,1,-1,2,-1,0,0
2655.4,1,4,-5,-3,-4,-2,1,-2
2676.554,1,-4,2,3,0,1,-1,-1
2676.554,-2,-4,-3,0,-2,1,0,0
2677.723,-1,-1,-2,1,3,1,-1,-1
2677.723,1,-5,6,1,-1,-1,-1,0
2699.999,-4,-4,2,1,-2,1,1,0
2699.999,-3,1,0,-1,2,1,2,-2
2701.012,0,0,2,1,-1,-1,-1,1
2701.012,0,1,-2,0,0,-1,-3,0
2714.492,0,2,0,0,-2,-2,0,-1
2714.492,-1,-3,1,1,-2,-2,2,1
2714.492,-1,-2,1,-1,1,0,1,-1
2714.492,-2,0,0,0,1,-1,0,0
2736.957,0,-1,4,1,2,1,1,1
2736.957,0,2,-2,0,0,-1,0,-1
2736.957,0,2,-1,-1,-3,0,2,0
2736.957,0,0,0,0,1,2,-1,1
2760.289,1,0,-3,-2,1,-2,0,0
2760.289,1,0,-2,-2,-2,-1,1,1
2760.289,0,-1,0,-3,-1,-1,-4,0
2760.289,1,3,0,-2,1,0,-1,-1
2774.143,-1,0,1,-1,-1,1,1,0
2774.143,1,1,-2,1,1,1,-1,-2
2775.192,0,-2,1,-2,-1,-3,0,-1
2775.192,1,1,1,1,0,3,0,-1
2796.485,1,3,-1,-2,1,-1,-2,-2
2796.485,-2,-2,-2,-1,0,-2,1,1
2797.513,0,0,-1,0,0,-1,1,2
2797.513,0,-1,-1,0,-2,0,-1,-1
2820.086,0,-2,0,-1,0,0,0,2
2820.086,0,-1,1,1,-1,0,-2,0
2821.083,0,2,-2,-2,-2,-1,0,0
2821.083,-1,-5,1,-1,-1,-1,-2,-1
2834.377,0,0,-2,-2,-1,1,-1,0
2834.377,-1,0,-1,0,0,0,-1,0
2835.41,-1,-2,4,1,0,1,1,0
2835.41,-3,0,0,-2,-1,-3,1,-1
2856.521,-3,-4,0,1,0,-2,1,0
2856.521,1,-1,-3,-1,0,-1,-1,-1
2857.536,0,2,1,-1,0,-1,-1,-1
2857.536,1,-3,-2,-1,-1,0,1,0
2880.349,-1,1,-1,-1,-2,1,1,1
2880.349,-2,-2,-3,-1,-1,-1,-4,-1
2880.349,0,-1,-3,-2,-2,0,1,0
2880.349,0,0,9,4,1,0,2,0
2902.316,1,0,-3,-3,-1,-2,-1,0
2902.316,-2,-3,-1,0,1,0,0,-1
2903.386,2,1,0,-1,0,0,1,0
2903.386,-1,0,-5,-1,0,0,-1,-1
2923.896,-2,-3,1,0,0,1,-1,0
2923.896,0,2,6,1,0,2,0,0
2931.629,-1,1,0,0,0,0,-1,-1
2931.629,0,-1,-3,-1,0,0,1,1
2940.047,0,5,-7,-1,-1,-3,0,-3
2940.047,0,-2,-4,-1,-1,0,0,1
2941.044,0,0,-1,0,1,-1,-2,0
2941.044,-1,-1,-1,-3,-1,0,0,1
2954.154,1,-1,-5,0,-1,-2,-1,0
2954.154,0,-1,3,-1,-1,-2,1,-1
2955.238,0,-1,-1,0,0,0,-1,-1
2955.238,0,1,-1,1,0,-1,-1,-3
2976.318,-2,-1,0,-2,0,1,0,-1
2976.318,1,1,-1,0,-1,0,0,0
2977.314,-1,-2,4,3,-2,-2,0,0
2977.314,-1,-1,-1,0,-2,0,-2,-1
2999.483,-2,0,1,2,0,1,0,1
2999.483,-1,-1,0,-2,1,0,1,-2
3000.509,-1,0,-3,-1,1,-1,0,-1
3000.509,2,1,0,-1,0,-1,-1,-2
3013.426,-2,-1,2,1,-1,-2,2,1
3013.426,-2,1,0,-3,0,-1,-1,-1
3028.734,1,-1,-2,-1,-1,0,-1,0
3028.734,-1,-2,-3,-1,0,1,-1,0
3036.597,0,-1,1,1,3,1,1,-2
3036.597,-2,-2,0,0,-3,0,0,1
3037.65,0,0,1,1,0,-1,0,-1
3037.65,0,0,-2,3,-3,-1,0,0
3059.015,0,1,-3,-1,-2,0,-1,1
3059.015,0,1,-1,-1,0,1,0,-2
3060.502,-1,-3,1,-1,-1,-1,-1,0
3060.502,-2,1,-1,1,-2,1,-2,1
3074.094,-2,-1,0,0,1,-1,-1,-1
3074.094,-1,-1,-1,0,-1,-2,1,0
3081.793,1,-1,0,1,-2,0,-3,0
3081.793,2,2,-3,-2,0,0,0,-2
3104.984,-1,0,-1,-2,-2,-1,0,0
3104.984,-2,-5,4,0,2,0,-1,0
3106.019,1,1,-1,-1,-1,0,0,1
3106.019,-1,1,0,-2,-1,0,-2,0
3119.955,0,-1,-1,-2,-1,1,-3,-1
3119.955,-1,2,-7,-3,-2,0,2,1
3120.951,-2,-5,2,-2,-4,-1,0,1
3120.951,-2,-1,-1,2,3,-1,0,0
3133.273,2,2,2,0,-1,-1,1,1
3133.273,-1,0,-3,2,1,-2,0,1
3141.571,0,0,1,0,1,0,-1,-1
3141.571,-1,0,1,1,0,0,0,0
3156.859,-1,-1,-2,0,0,-1,0,-1
3156.859,1,-2,-3,0,-1,-1,-2,-2
3157.927,-2,0,0,1,0,1,3,-2
3157.927,-1,-2,-1,-1,-1,0,-1,-1
3180.397,1,-2,-1,0,3,-1,-1,-1
3180.397,-1,1,0,-1,-3,-2,-1,-1
3180.397,-2,-1,2,0,1,0,-1,-1
3180.397,2,-2,1,1,1,-3,-2,-1
3193.793,-2,1,2,0,0,1,0,0
3193.793,2,0,-3,0,0,-1,2,1
3201.766,0,2,1,-1,-1,-1,-2,-1
3201.766,0,1,0,0,0,-2,0,0
3217.028,1,1,-6,-1,-1,-2,1,-1
3217.028,0,-2,3,2,1,0,0,-1
3217.028,-2,1,-2,0,-2,-1,-1,1
3217.028,1,-5,6,4,0,1,1,0
3239.537,-1,0,-2,-1,-2,0,-1,-2
3239.537,-1,1,-5,-1,0,0,1,1
3240.585,0,-1,0,0,0,1,1,1
3240.585,-1,0,-1,-2,-1,-1,-1,-1
3253.236,-3,-3,0,-2,0,0,0,0
3253.236,-1,-2,1,1,0,0,1,0
3261.227,1,0,0,-1,0,-1,0,0
3261.227,0,-2,-3,-1,0,0,-1,0
3276.119,-1,1,1,-1,0,-1,0,0
3276.119,-2,1,-4,0,-1,-1,-1,0
3277.601,0,-5,5,0,1,-2,-1,-2
3277.601,1,-1,-1,0,-2,0,-1,0
3307.946,-2,-1,-2,1,-2,0,0,-1
3307.946,-1,0,-1,-2,0,-2,0,1
3307.946,0,-1,-4,1,0,0,0,-1
3307.946,-2,2,2,-1,-2,-1,0,0
3322.729,1,-2,0,1,1,1,0,1
3322.729,-1,0,3,-1,-1,0,1,1
3322.729,0,0,-5,0,-2,0,1,-2
3322.729,-1,2,0,0,0,0,-1,-1
3337.15,2,-1,-3,1,-2,0,-1,-2
3337.15,-1,-1,1,-2,-1,0,-1,0
3337.15,1,5,-3,-5,-2,-3,-1,-1
3337.15,-2,-1,-1,0,0,0,-2,-2
3360.331,0,-1,-2,-2,-1,-1,2,1
3360.331,1,0,1,0,-1,0,-1,1
3360.331,-3,-1,0,2,-2,0,0,0
3360.331,1,3,-3,-2,-2,-1,-1,-1
3382.819,-1,0,1,1,0,-1,0,-1
3382.819,1,-1,-3,0,1,-1,1,1
3382.819,2,1,2,-1,1,0,0,-1
3382.819,1,0,-4,0,-1,-2,0,0
3397.171,-3,1,0,-1,0,-2,0,-2
3397.171,0,-1,0,2,0,0,2,-2
3397.171,0,1,4,-1,-2,-1,-1,0
3397.171,0,-2,2,-2,-1,2,1,1
3420.313,-2,-4,4,0,1,1,-1,-1
3420.313,-4,1,-1,-2,0,-3,-1,-3
3420.313,0,-2,-1,-1,-1,0,0,0
3420.313,0,-1,5,1,-1,1,0,1
3442.665,-1,0,-1,0,-2,-2,-1,-1
3442.665,1,3,4,2,-1,0,0,-1
3442.665,-1,-4,3,2,1,0,-1,-1
3442.665,0,2,-2,-2,-1,-2,0,1
3457.0,1,0,-1,-2,-2,-2,-1,1
3457.0,0,-1,-1,-3,-1,-1,0,0
3457.0,-2,-3,1,1,2,2,0,-1
3457.0,-1,-1,1,0,-1,-1,-2,0
3479.711,-1,1,-1,0,-1,0,1,0
3479.711,-2,-3,-3,0,0,1,0,-2
3481.1,1,3,-2,-2,-1,-3,-2,0
3481.1,-2,-1,-2,1,1,1,0,0
3502.396,-1,-1,0,1,1,-1,1,0
3502.396,2,-1,-1,-4,-3,-2,1,1
3503.427,-1,1,-1,0,1,1,0,-1
3503.427,-1,-3,-1,0,0,0,1,0
3516.412,0,-1,-3,-2,-2,0,-2,-1
3516.412,-1,-2,0,1,0,-1,-1,1
3517.409,2,-2,0,2,0,0,-1,2
3517.409,-2,-4,1,-1,0,-2,0,1
3539.377,0,1,-2,0,-1,0,0,0
3539.377,-1,-1,-1,1,-1,0,0,-1
3540.452,1,0,2,-2,1,-1,0,-1
3540.452,0,0,-1,-1,0,-1,1,-2
3562.651,0,0,1,-1,1,2,-1,-1
3562.651,0,0,2,-2,0,-1,-2,0
3562.651,-1,2,0,0,-1,0,-1,-2
3562.651,2,-1,-1,-1,-2,1,-3,1
3577.056,0,-2,-1,-2,-1,-3,-1,0
3577.056,-1,-1,-1,-1,-2,1,-1,-1
3577.056,-2,-2,1,0,-1,2,-1,-1
3577.056,1,-2,0,0,-1,-1,0,0
3600.198,0,0,-1,1,-1,-1,0,-1
3600.198,-1,0,0,0,1,1,-2,-3
3601.21,2,0,0,-1,-2,-2,1,-1
3601.21,1,1,1,1,1,2,0,-1
3622.169,-2,-1,-3,-1,0,0,0,3
3622.169,0,0,-1,0,0,-2,0,0
3623.233,-1,1,1,-2,1,2,-3,0
3623.233,0,1,1,-3,-1,0,0,-1
3636.783,-2,-1,-1,0,0,0,0,0
3636.783,-1,0,-1,-1,-1,1,-1,0
3644.376,0,-1,1,1,-1,0,-3,-1
3644.376,0,-1,-1,-1,-2,-3,-2,-1
3660.104,-1,-1,-1,1,-2,-1,3,0
3660.104,-1,-1,-1,1,-1,-1,0,0
3661.127,0,1,-3,-1,-1,0,0,0
3661.127,-1,2,-1,-2,1,0,1,0
3682.603,-1,2,-2,-2,1,0,1,-1
3682.603,-1,1,-1,-2,-2,-1,0,-1
3683.614,0,-1,-1,0,-1,-1,0,1
3683.614,-2,0,-1,0,-1,0,1,-1
3696.36,1,0,-1,2,0,-2,0,-1
3696.36,1,-1,-1,-2,1,0,0,0
3697.783,0,1,0,1,2,0,-2,-1
3697.783,-2,-3,1,0,-1,0,-2,1
3719.838,0,2,-3,-2,1,1,0,1
3719.838,-1,-2,3,2,-1,0,0,0
3720.853,1,0,1,0,1,-2,3,1
3720.853,-1,-1,0,0,0,1,0,-1
3742.543,0,-4,-1,-1,-1,-1,0,-1
3742.543,0,1,-2,0,-1,1,-2,0
3743.958,2,1,1,0,-1,-1,1,-1
3743.958,-1,-1,1,0,1,-1,-1,-1
3757.142,-1,3,-2,-2,-2,-1,-1,-1
3757.142,0,0,-4,-2,-2,-2,0,-1
3757.142,0,-1,-1,0,-2,-1,-1,0
3757.142,-1,1,-2,0,-1,0,-2,0
3779.82,0,0,0,-1,-1,2,-2,-2
3779.82,-2,-2,-4,1,0,-2,0,1
3780.831,-3,-1,0,0,1,-1,-3,1
3780.831,-2,-2,-2,0,0,-2,1,0
3802.64,-1,-2,0,0,1,-1,1,-1
3802.64,0,1,5,1,-1,1,1,-1
3803.653,-1,-1,-1,1,-1,1,-1,-1
3803.653,1,0,-2,1,-1,1,1,1
3816.354,1,-3,1,1,-1,-1,1,-1
3816.354,0,1,0,-1,-2,3,1,0
3817.375,-2,0,0,1,-3,1,-2,0
3817.375,-1,-3,2,2,-1,0,0,1
3839.432,0,-1,-2,-1,-1,-3,1,-2
3839.432,1,0,0,-1,-1,-2,-1,-2
3840.443,0,-2,0,1,-1,0,-2,0
3840.443,1,-1,-3,-3,0,-1,1,0
3861.653,-2,-1,0,0,-1,-1,-1,2
3861.653,-1,-2,0,-1,0,0,0,2
3863.042,1,2,0,0,0,1,0,1
3863.042,-2,0,-1,0,1,-1,-1,-1
3876.55,-3,-3,-2,-1,2,1,-2,-2
3876.55,2,0,-1,-3,0,-2,0,-1
3877.848,-1,-8,12,3,0,1,1,-1
3877.848,-1,1,-4,0,1,0,0,0
3899.499,0,0,-4,-1,-1,-2,-1,1
3899.499,-3,0,-2,2,-2,0,-2,-2
3900.504,-1,2,-3,-3,-1,0,0,-1
3900.504,-1,1,-1,0,-2,1,-1,1
3922.86,1,-1,-1,0,-1,0,1,0
3922.86,0,-2,0,1,0,-1,-3,0
3923.369,1,3,-2,-2,0,-3,1,-1
3923.369,-1,-1,0,0,-1,0,-1,-1
3936.343,0,2,-2,-2,-1,0,1,-1
3936.343,-1,-2,0,-1,2,-1,-1,-1
3943.672,-2,0,1,0,-2,1,-1,-3
3943.672,1,2,-2,-2,0,-1,-1,-3
3959.503,-1,-1,2,0,0,-1,0,0
3959.503,-2,-1,-1,-1,1,1,1,0
3960.658,1,0,-2,-1,0,-1,-1,0
3960.658,-2,-1,-1,-1,-1,-1,0,0
3982.668,-3,-2,6,4,0,1,-1,1
3982.668,0,0,-2,-1,0,0,0,0
3982.668,0,2,-2,1,-1,0,1,-1
3982.668,0,-3,2,-1,-1,-1,-1,-1
3996.295,-2,-2,-2,-3,-2,-2,0,-1
3996.295,-2,-1,-6,-2,-3,-2,-3,0
4004.399,0,-1,-1,3,1,0,-1,2
4004.399,-1,-2,0,2,-1,-1,0,-1
4019.327,2,1,0,-1,-1,0,1,-1
4019.327,-1,0,1,-2,2,1,1,-2
4020.322,0,-1,-2,0,-2,0,-1,0
4020.322,-1,0,-1,0,1,0,-1,-1
4042.73,-2,2,-3,-1,0,0,-3,1
4042.73,0,0,3,2,0,2,0,1
4042.73,-1,-8,8,1,-1,0,-2,-1
4042.73,-1,0,-1,0,-1,1,0,0
4055.918,2,2,0,1,-1,-1,2,-2
4055.918,0,0,0,-2,-3,0,-1,-2
4064.624,0,2,-1,-1,0,-1,-1,0
4064.624,1,-2,-1,0,-1,-1,-2,-1
4087.831,1,-4,0,0,-2,0,-2,-1
4087.831,1,2,-1,-1,-1,0,2,0
4088.829,-1,2,-3,0,1,-1,0,-1
4088.829,-1,0,1,1,0,2,-1,1
4102.148,-1,-1,-4,0,2,0,0,0
4102.148,-1,-2,1,0,0,-1,1,-1
4103.154,1,-1,-10,-6,-2,-1,-5,-1
4103.154,-1,-6,5,4,4,2,0,-1
4116.02,0,0,0,-1,-1,-1,-2,-1
4116.02,-1,1,-2,1,-1,0,1,-3
4123.821,-1,1,-3,0,-1,-2,0,0
4123.821,0,2,-3,-1,0,-2,-2,1
4140.275,0,-1,-1,-2,2,-1,1,1
4140.275,2,2,-1,0,0,1,-2,0
4140.275,0,1,4,0,0,0,0,0
4140.275,1,1,-3,-2,-1,-1,0,-1
4162.489,-2,0,1,1,-1,-1,2,-1
4162.489,1,0,1,0,0,-1,0,1
4164.854,1,-2,4,0,2,-1,-1,0
4164.854,0,-2,0,0,-1,-1,-1,-2
4176.345,1,3,-5,-1,-1,0,0,0
4176.345,-1,-1,1,2,-1,-2,0,-1
4184.634,2,1,2,1,-1,2,0,1
4184.634,1,0,-1,-3,-2,-3,1,0
4199.934,-2,-1,-6,-3,-4,0,-1,0
4199.934,-1,-3,0,1,1,-2,-2,-1
4200.941,-1,1,-1,-1,-1,-1,1,0
4200.941,0,0,-4,-1,0,1,1,-1
4222.716,-1,-3,0,-2,0,-2,0,2
4222.716,1,0,0,-1,-1,0,-2,1
4223.714,-1,-1,-1,0,-1,-1,0,0
4223.714,-2,1,1,0,-2,-1,0,0
4235.699,0,0,2,1,0,-2,0,-1
4235.699,0,-1,1,-1,-1,-1,0,-1
4244.703,1,1,0,-2,-1,0,-2,0
4244.703,-2,1,-2,0,0,-1,1,1
4260.376,-1,0,0,1,0,-1,0,1
4260.376,0,1,2,0,-2,-1,-2,0
4261.38,1,0,-2,0,-1,-2,1,-1
4261.38,0,-1,0,1,-1,-1,-1,0
4282.636,-1,-5,1,-1,1,-1,1,1
4282.636,-1,1,-2,-2,1,0,0,3
4284.0,0,0,2,2,0,-1,-2,-2
4284.0,0,-1,-2,1,1,1,0,-2
4305.431,-2,-1,-3,-1,-1,-1,0,0
4305.431,0,0,0,-2,-2,2,1,0
4306.438,0,-1,1,1,-1,1,-1,0
4306.438,-1,0,2,-2,0,-1,0,0
4319.478,0,1,0,1,-2,0,-2,-1
4319.478,-2,-3,0,0,0,-2,1,-2
4326.141,0,-1,1,1,-1,-1,-3,-1
4326.141,1,-2,-3,-1,0,-1,-1,-2
4342.736,-3,-1,0,-2,0,2,-1,-1
4342.736,1,2,1,0,-1,-1,-2,-1
4343.773,-1,1,-2,1,1,-1,1,0
4343.773,1,0,1,-1,-2,0,-1,-1
4364.5,1,-1,-2,2,1,-1,-1,0
4364.5,-1,-2,2,1,-1,-1,-1,-1
4366.495,-2,1,-4,-1,-1,0,1,-1
4366.495,-1,-2,2,0,2,1,2,1
4379.744,0,-1,5,1,2,0,-1,0
4379.744,-1,-2,-1,-2,-2,-2,-2,-1
4381.899,0,3,-3,0,0,0,-1,-2
4381.899,-1,1,-5,0,-1,-1,-1,-1
4402.438,-1,0,0,0,0,-1,-2,-2
4402.438,1,1,0,2,1,0,-1,-2
4403.447,-1,-4,0,-1,0,0,2,0
4403.447,-3,-3,1,1,-1,3,0,1
4423.803,3,1,-1,-2,-1,-2,0,-1
4423.803,1,1,-3,-2,-1,-1,-1,0
4432.357,-1,-2,0,-1,-1,-1,-2,0
4432.357,1,1,-2,-1,-1,0,1,0
4438.602,-2,-2,-1,-2,-1,-2,1,0
4438.602,1,-2,1,-1,-2,1,-1,1
4445.638,1,-1,1,0,-3,0,2,0
4445.638,0,-1,-1,-1,-2,-2,1,1
4462.83,-2,-2,-2,2,-1,3,1,-1
4462.83,0,2,-2,-1,2,0,0,0
4464.338,-1,-1,2,1,0,1,0,0
4464.338,-1,2,0,-2,0,-2,0,-1
4485.24,1,0,-2,-2,-1,-1,1,-2
4485.24,-2,-2,1,0,1,-1,-1,0
4486.651,0,0,0,1,2,-1,-3,1
4486.651,0,-1,1,0,-2,-1,-2,0
4499.236,-2,-1,-1,1,0,-1,1,-1
4499.236,1,0,-1,1,-2,0,0,0
4505.641,0,-1,2,1,-1,0,-2,0
4505.641,-1,0,-2,-1,-2,0,1,0
4522.371,1,-2,-1,0,-2,-1,0,-1
4522.371,-1,-3,1,-1,1,0,-3,-1
4523.775,0,-1,-3,0,0,-1,-3,-1
4523.775,1,-2,-1,1,1,0,-1,-1
4545.148,-1,1,1,0,-1,-1,-1,-1
4545.148,-1,2,-1,0,0,-2,1,0
4546.233,-1,-1,1,-2,-1,0,-1,1
4546.233,0,-2,0,0,0,0,1,0
4560.152,-1,-1,-1,-3,1,0,0,-1
4560.152,1,0,0,-1,-2,1,1,-1
4565.65,-1,1,-2,-1,-1,0,0,-1
4565.65,-1,2,-1,1,-1,-2,-1,0
4581.97,-1,-1,-2,-2,0,0,-3,-1
4581.97,1,-1,2,1,-1,-2,-1,-1
4584.09,-1,-2,0,-1,-1,0,1,0
4584.09,0,-4,-3,0,0,0,-1,-1
4604.505,0,3,-4,-1,1,-3,1,0
4604.505,2,-1,0,0,-1,0,-1,0
4606.8,0,-1,0,0,0,-1,1,-1
4606.8,-1,0,0,0,0,1,0,0
4619.259,-2,-2,1,-1,-1,0,1,2
4619.259,-1,1,0,1,0,0,-2,1
4626.308,-1,-2,-1,-1,-1,0,1,-2
4626.308,0,0,-1,-1,-1,1,-1,-1
4641.93,1,0,-1,1,-1,0,0,-1
4641.93,-2,-1,3,0,-1,-2,4,0
4643.923,0,0,1,-1,1,0,0,-2
4643.923,-2,0,0,-1,0,-2,0,-1
4664.345,0,2,-3,0,-1,0,0,1
4664.345,0,-2,1,-1,1,0,0,0
4666.75,-1,-1,1,0,-1,1,-1,1
4666.75,-1,-1,-1,-1,0,1,0,-1
4679.308,-1,0,-1,1,0,0,0,-1
4679.308,1,1,1,1,-1,0,0,-2
4686.284,1,2,-4,-1,0,0,-1,0
4686.284,1,-2,2,-1,1,-1,0,1
4701.879,-1,-3,0,0,-2,0,1,0
4701.879,0,-1,3,-1,0,-2,-1,-1
4704.044,0,-1,1,0,-1,-1,0,-1
4704.044,-1,0,-2,0,-1,0,-2,1
4732.834,-2,-1,-2,-2,-1,-1,-1,1
4732.834,-1,-1,-2,-1,0,1,-2,-1
4733.83,-1,-2,1,0,-1,-1,-1,-1
4733.83,0,-2,-1,-1,1,0,-2,-1
4738.979,0,-2,1,-1,0,-1,2,-2
4738.979,0,-1,-3,1,2,0,-2,0
4746.122,-2,-1,0,0,-1,-1,-1,1
4746.122,-2,-1,2,0,-1,-1,0,0
4762.403,-1,0,-2,0,-3,-1,0,1
4762.403,0,1,0,1,-3,1,0,0
4764.471,1,-1,0,1,-1,0,-1,-1
4764.471,-1,-1,-1,0,0,0,-2,1
4784.748,0,-1,-2,-1,1,-2,0,0
4784.748,0,-3,-1,0,-1,-1,-1,0
4786.775,0,-1,-1,1,0,-1,1,0
4786.775,0,-1,4,-2,0,-1,1,0
4798.923,2,0,-1,1,0,0,0,-1
4798.923,0,0,-1,-1,1,-1,-2,-1
4807.122,-1,1,2,-1,0,0,-3,1
4807.122,-1,-1,-4,-1,-1,0,0,-3
4822.622,-1,0,-1,0,0,-1,0,-1
4822.622,0,-1,1,0,-1,-1,1,1
4823.847,2,0,-1,-1,0,-1,-1,-2
4823.847,0,2,-1,-1,0,1,2,0
4845.041,-3,2,-3,-2,0,2,-1,-1
4845.041,0,0,-1,-1,-1,0,-1,1
4846.052,-1,0,1,1,-1,0,0,0
4846.052,1,-1,-3,-1,0,-1,1,0
4858.745,0,2,1,1,1,-1,1,0
4858.745,0,1,-1,-1,-1,1,0,0
4867.353,1,-3,-2,1,-1,1,0,1
4867.353,-1,-3,-1,0,-2,1,-1,-2
4882.538,1,-2,-1,-1,0,1,-4,-2
4882.538,-1,1,1,0,0,1,0,-2
4883.555,0,1,-1,-1,-2,0,0,-2
4883.555,-1,1,-1,1,0,0,-2,-1
4904.872,-2,0,0,-1,0,0,0,-1
4904.872,1,-1,1,0,0,-1,0,-1
4905.936,0,0,-1,-2,-2,0,-1,0
4905.936,-2,0,2,1,0,-1,0,0
4918.862,-1,-2,0,-2,0,-2,0,-1
4918.862,-1,2,0,-1,-1,0,-1,-1
4944.399,-1,0,-1,-2,1,0,2,0
4944.399,1,0,-1,0,0,-1,0,0
4945.634,1,1,-1,1,-1,1,-3,1
4945.634,-1,-2,1,-1,-2,0,0,-1
4948.034,0,0,0,1,-1,-1,-3,0
4948.034,-3,-1,-3,-1,-1,-2,-1,0
4964.591,-1,-3,0,0,-2,-1,2,-2
4964.591,0,0,1,0,0,0,-3,-1
4966.626,-1,0,-1,0,0,-1,0,-2
4966.626,-1,1,-3,0,0,-1,1,-2
4978.571,1,0,0,-2,1,0,0,1
4978.571,-1,-1,0,1,0,0,1,1
4987.352,-2,-3,0,0,0,1,-2,0
4987.352,0,0,0,0,-1,0,-2,-1
5009.561,-1,-2,-1,-2,0,0,0,-1
5009.561,-1,0,0,-1,-1,-1,0,0
5011.771,-2,-1,0,0,0,0,0,-1
5011.771,-2,0,-3,-1,0,0,0,1
5024.642,0,-1,0,-2,-2,0,2,-1
5024.642,-1,-1,3,2,0,-2,0,-1
5027.069,1,-1,2,1,-2,0,-1,-1
5027.069,-1,0,-1,-1,-3,-2,2,-1
5038.482,-3,1,-1,2,-2,-1,-2,-1
5038.482,2,-1,-1,-1,0,-1,-1,-1
5047.856,0,-1,-1,-1,-1,0,1,-2
5047.856,-1,-2,0,-2,0,1,-2,-1
5070.315,-1,-4,1,1,1,-1,-2,1
5070.315,0,0,-1,0,-1,0,0,-2
5071.339,0,1,0,-1,-1,1,-1,0
5071.339,-2,-1,0,-1,-1,1,0,0
5084.401,-1,2,3,0,-1,-1,0,0
5084.401,1,1,1,-1,-1,-1,-1,-1
5086.551,0,-1,-2,-1,0,-2,-1,1
5086.551,1,1,-1,0,-2,0,0,-2
5098.61,-1,-3,-3,0,0,1,-3,1
5098.61,1,0,-1,-1,1,2,-1,-1
5107.461,-2,2,0,0,-1,-2,-2,0
5107.461,-1,-2,-1,1,-1,-1,0,0
5122.439,1,0,-1,-3,-1,-2,2,1
5122.439,-2,-2,1,-2,-2,-2,-2,2
5123.459,0,0,-2,-1,0,-1,1,1
5123.459,0,-1,0,-1,1,-1,1,0
5144.592,0,1,0,-2,-1,1,1,-1
5144.592,1,1,1,1,-1,0,0,1
5146.014,-1,-2,-1,-1,-1,-1,0,-1
5146.014,-1,-1,-3,0,-1,1,-1,1
5157.945,-2,-1,0,0,-2,1,-1,0
5157.945,0,2,0,-2,1,-1,1,0
5167.095,-1,-1,1,0,-1,-1,1,-2
5167.095,-1,0,1,0,-1,1,-2,-1
5181.832,-1,-1,-3,1,-1,-3,-1,-3
5181.832,-2,0,0,0,-2,2,0,0
5184.036,0,-2,-2,-2,1,0,-1,2
5184.036,1,-1,0,-1,1,0,-1,0
5212.068,2,0,1,-3,-2,-2,-1,-1
5212.068,2,-1,-1,1,0,1,-1,0
5214.189,0,2,1,-2,-1,-1,-1,-1
5214.189,0,-2,-3,-1,-1,-2,0,-1
5226.493,1,1,-2,-1,2,-1,0,1
5226.493,1,-2,0,-1,0,-1,0,-1
5229.084,0,1,0,0,-2,1,-1,-1
5229.084,-1,1,0,-2,0,-1,0,0
5241.975,-2,0,1,2,-1,1,1,-1
5241.975,-1,-2,-1,-1,1,0,-1,-1
5248.841,-1,-2,2,0,-1,-2,0,0
5248.841,1,-1,-2,0,0,-1,-2,0
5272.846,1,-7,7,1,3,1,1,-2
5272.846,1,0,0,1,1,-1,0,1
5273.867,0,0,-2,1,0,-3,-1,1
5273.867,-1,-1,-1,-2,-2,-1,-1,1
5287.444,0,-1,-5,-2,-1,-1,-1,-1
5287.444,-1,1,3,0,-2,-1,-2,0
5289.464,0,-1,-2,1,1,-1,1,-1
5289.464,0,1,-2,-1,-2,0,1,0
5301.515,-2,0,0,0,-1,0,0,0
5301.515,0,2,0,-1,-1,0,2,-1
5303.991,0,1,-1,-1,-1,1,-1,0
5303.991,-1,-1,-2,-2,-2,-1,-2,-1
5324.396,-1,0,-2,-1,-1,0,-2,-1
5324.396,1,-2,0,2,-2,0,-2,0
5326.885,-2,-1,-2,1,-1,1,0,1
5326.885,-2,-6,1,1,1,0,2,-2
5346.933,-2,0,1,-2,-1,-1,-1,-1
5346.933,-2,0,0,1,-1,-1,-2,-1
5349.11,0,1,0,-1,-2,1,-1,-1
5349.11,0,1,-2,-1,0,0,0,0
5361.977,-1,3,2,-2,-1,0,-3,2
5361.977,-1,0,1,1,-1,-1,-1,-1
5368.422,1,-1,-2,1,1,0,0,-1
5368.422,-1,-1,-1,-1,0,1,0,0
5384.887,1,0,-4,-1,1,-1,1,-1
5384.887,1,0,1,-1,-1,0,-3,-1
5385.919,-1,-2,0,-2,-1,-1,-1,0
5385.919,-1,0,-2,0,0,1,0,0
5415.226,2,-1,0,-2,-1,-1,-1,2
5415.226,-2,-1,0,-1,0,-1,0,-2
5416.262,0,-2,0,-1,-1,-1,0,1
5416.262,0,1,-2,-1,0,-3,-1,-1
5421.178,-1,-2,1,-2,0,-1,0,0
5421.178,2,-1,-3,1,0,0,-2,-2
5428.18,0,0,-1,-2,-2,1,-1,-1
5428.18,2,-1,0,-1,0,0,2,3
5445.232,-2,0,-2,2,-1,2,-1,-3
5445.232,-1,-1,1,0,0,0,-1,0
5446.242,-1,-1,0,1,1,-1,0,-2
5446.242,-1,2,-1,0,-1,-1,0,-1
5467.563,2,1,-3,0,1,-2,-2,-1
5467.563,1,0,2,-2,-1,-1,1,1
5468.584,1,-1,-2,-2,0,-1,-1,0
5468.584,-1,0,2,-1,-2,1,-1,-2
5489.869,-2,-1,0,0,0,-1,0,0
5489.869,-4,0,-2,1,-1,0,0,0
5490.89,0,0,-3,-1,1,-2,0,1
5490.89,1,1,-1,-1,0,-3,0,0
5505.381,2,-2,-3,2,1,-1,-1,1
5505.381,-1,-2,1,-1,-1,0,-2,0
5506.495,-3,-2,-2,0,-1,0,-2,0
5506.495,-1,-2,-1,0,0,0,0,0
5527.92,-2,1,3,-2,-2,1,0,-1
5527.92,2,0,-3,0,-1,-1,-2,0
5529.529,-1,-1,1,-1,-1,1,-2,1
5529.529,0,-1,-3,-2,-1,-3,2,-1
5541.502,-1,1,0,1,0,-2,2,0
5541.502,4,0,0,0,0,2,-1,-2
5548.342,0,0,-3,-1,-1,0,-1,-2
5548.342,-3,-2,-1,-1,1,0,-3,0
5565.727,1,1,0,-1,0,0,1,0
5565.727,-1,1,-1,0,-1,-2,0,0
5566.749,0,-1,-1,1,0,-3,1,-1
5566.749,-1,2,-3,-3,-3,0,-1,0
5587.042,0,0,-1,1,-1,-1,0,-1
5587.042,0,0,0,0,0,0,0,3
5589.18,-2,-1,-1,0,1,0,-1,-2
5589.18,-1,0,-1,-2,-1,1,-3,1
5601.176,-2,-1,-1,0,-1,-1,-2,-1
5601.176,2,-4,1,-2,-1,2,2,-1
5625.233,0,2,-1,-2,-1,-1,0,1
5625.233,-1,-2,0,-1,-2,-1,0,1
5626.688,0,0,-2,-2,-1,-1,-2,0
5626.688,-2,-2,1,0,0,0,-1,-2
5627.713,0,-3,0,1,1,1,1,0
5627.713,1,2,-1,1,-1,1,-1,1
5647.226,1,1,0,-1,0,0,-1,2
5647.226,0,-1,-2,0,-2,-2,-2,-1
5648.24,-1,-1,0,1,0,-2,-1,0
5648.24,-1,-1,0,0,-1,-1,3,0
5661.441,1,0,1,1,1,-1,-2,1
5661.441,1,4,-2,-3,-3,-1,-2,0
5676.249,0,1,-1,0,1,-1,-2,-2
5676.249,0,-3,-2,0,1,-1,-2,-1
5685.14,-1,-2,-1,-1,-1,1,1,-2
5685.14,-1,-1,0,2,0,1,0,0
5686.143,-1,0,0,-1,-1,-1,-1,0
5686.143,0,0,-1,-1,0,-1,1,-1
5707.285,0,0,2,-4,0,0,2,-2
5707.285,2,-1,2,1,0,1,-2,0
5708.5,0,0,-1,-2,0,-1,0,-1
5708.5,-2,-1,0,2,0,-1,-1,-1
5721.472,0,0,-3,2,0,0,-1,-1
5721.472,-1,-1,2,0,-1,0,-3,0
5729.892,-1,0,-1,-1,-1,-1,3,1
5729.892,-1,-2,-3,-3,-2,-1,1,0
5744.283,-3,-2,2,-1,0,1,0,-3
5744.283,-1,-2,2,-2,0,1,-1,0
5750.649,0,1,-1,0,0,1,0,-2
5750.649,-2,0,0,0,1,1,-3,-2
5767.619,0,0,-3,1,-1,-2,-1,1
5767.619,0,1,1,2,-1,0,-1,0
5768.629,-1,-1,0,-1,0,-1,1,1
5768.629,0,0,0,1,0,0,0,-1
5781.082,-2,-1,-1,-2,-1,1,0,-1
5781.082,0,-1,-1,0,0,-1,0,1
5789.903,-2,-4,-1,0,-3,0,-2,2
5789.903,0,2,0,-1,1,-1,1,-1
5804.427,0,-1,1,0,-1,-2,-2,-1
5804.427,-1,0,0,-1,-2,0,-1,-2
5806.459,-2,3,-2,-3,-2,1,2,-2
5806.459,-1,-3,-1,0,0,1,-1,0
5827.043,-1,-1,0,-3,-2,-2,-1,1
5827.043,-1,0,2,2,0,1,1,0
5828.779,-3,-1,-1,0,-1,-1,1,0
5828.779,0,1,-2,-1,0,-1,-1,0
5840.898,1,-1,2,1,-2,0,0,0
5840.898,-1,-1,-1,0,-1,-1,1,-2
5849.822,-1,-1,0,0,0,-1,-3,-3
5849.822,-2,0,1,0,1,-2,1,0
5864.637,1,-1,1,-1,1,0,-1,-2
5864.637,2,-1,-2,0,0,-2,0,1
5866.68,1,-3,2,0,0,0,1,0
5866.68,1,0,-2,0,-1,0,0,-1
5894.862,-1,0,-1,0,-1,0,1,-1
5894.862,1,0,1,0,-1,0,-1,-1
5895.877,-1,-2,0,-1,2,-1,-2,0
5895.877,1,-1,-3,-1,-3,-2,0,-1
5900.701,0,-1,-2,0,-1,-1,-1,0
5900.701,-3,2,-3,0,0,1,0,1
5910.129,0,-1,-2,1,0,0,1,0
5910.129,-1,-2,3,0,0,0,0,-2
5924.99,-1,-2,0,1,-1,-1,0,0
5924.99,-1,2,0,0,-1,-1,-2,-1
5926.003,0,-1,1,-1,0,0,0,0
5926.003,-1,0,-1,-1,-3,-2,-2,0
5947.778,0,-2,0,1,-1,0,-1,2
5947.778,2,-3,-1,1,1,-4,-1,0
5948.775,1,3,-6,-1,-1,-2,0,0
5948.775,-1,-2,-1,-1,1,2,1,1
5960.919,-1,0,-2,-1,-1,0,1,-1
5960.919,0,1,0,-1,0,0,1,-1
5987.404,1,-1,-1,-1,-1,0,1,0
5987.404,-1,-1,-2,0,1,-3,-1,-1
5987.404,1,1,-1,-2,0,0,-3,-2
5987.404,-1,-2,2,1,-1,1,-1,1
5990.915,1,-1,-1,0,-2,0,-2,0
5990.915,0,-1,0,-3,-1,-3,1,2
6007.38,-1,-1,0,2,0,0,0,0
6007.38,-2,0,-1,-1,0,-1,1,-1
6008.494,0,0,1,-2,-1,-1,0,0
6008.494,0,2,0,1,-1,2,0,-1
6021.088,-2,1,2,0,0,-1,-1,0
6021.088,0,-3,1,-1,-1,-1,1,1
6030.199,0,0,1,0,1,0,2,1
6030.199,0,0,-1,-1,0,1,1,-3
6045.034,1,1,0,-3,1,-2,-1,-1
6045.034,0,1,2,0,1,1,-1,1
6047.245,0,0,0,0,-2,-1,0,-2
6047.245,0,-3,-3,-1,-1,1,1,0
6067.711,1,-2,-3,-2,-3,1,0,-1
6067.711,-1,-6,5,0,1,0,1,0
6068.73,-1,-1,-1,0,1,0,-1,0
6068.73,0,-1,-2,-1,-1,-2,1,1
6081.455,0,0,-1,-2,2,-1,0,0
6081.455,0,1,-3,-1,-1,-1,-2,1
6095.541,-1,-1,0,0,0,-1,-1,-2
6095.541,-2,1,1,1,-1,-3,-3,-2
6105.241,0,1,2,-1,-1,-1,-1,-1
6105.241,0,0,-2,-1,-3,1,0,0
6106.592,0,1,-2,-1,1,0,-2,0
6106.592,-1,0,-1,-1,-2,0,-2,1
6126.929,-2,-2,0,-2,-1,1,-1,-2
6126.929,-1,0,-1,-1,0,0,0,-1
6129.018,-2,-3,0,-1,0,-1,2,2
6129.018,1,1,-1,0,1,2,1,0
6150.251,1,1,0,1,-1,1,0,1
6150.251,0,-3,-1,-1,0,1,-1,0
6151.26,-2,-1,1,-2,-1,0,1,0
6151.26,0,1,0,-1,0,-1,1,-1
6165.245,1,-1,-1,-1,-1,-1,1,0
6165.245,0,2,-4,1,-2,-1,-2,-3
6166.242,0,2,1,0,0,-2,-1,0
6166.242,-1,-1,-1,1,0,0,-1,0
6187.154,0,-2,-1,0,0,0,1,-1
6187.154,0,-1,0,-1,-2,-1,-1,-2
6189.222,-3,0,-1,-1,-1,1,0,0
6189.222,-1,-1,0,-1,-1,1,0,0
6209.662,0,-2,1,-1,-1,-1,-3,1
6209.662,-1,2,-1,-1,0,0,-1,-1
6211.662,-1,-3,-3,-1,-1,1,0,-1
6211.662,0,1,0,-3,1,-1,0,0
6225.142,1,2,3,-2,-1,1,0,-1
6225.142,1,-1,-1,1,-1,-1,1,-2
6226.241,1,0,-1,-1,0,0,-1,0
6226.241,0,-1,-4,0,0,-1,0,-1
6247.752,-2,-2,-2,1,0,2,-1,1
6247.752,-1,1,0,0,-2,0,-1,1
6248.765,1,-1,-5,-2,0,-1,-1,0
6248.765,-2,-4,3,2,0,0,1,-1
6269.768,-1,2,0,-1,-1,0,-1,-3
6269.768,-1,-1,-3,-1,0,-1,1,1
6271.777,-2,-2,0,1,0,-1,-1,0
6271.777,0,0,-3,-2,-1,-1,1,1
6285.255,2,-4,1,-1,-2,-2,-2,-1
6285.255,0,-1,-1,1,-1,0,-1,-1
6286.268,1,-2,0,0,1,0,-1,-1
6286.268,-1,2,-1,0,-1,0,-1,1
6308.213,-2,-1,2,0,2,-1,1,-1
6308.213,-1,0,0,-2,0,0,0,0
6309.702,-1,0,-1,-2,-1,0,0,-1
6309.702,-1,0,0,-1,-2,0,-2,0
6329.781,0,0,-1,0,0,-1,2,0
6329.781,0,-1,0,-1,-1,0,0,1
6331.823,-1,-2,-1,1,-1,0,0,0
6331.823,-1,-1,0,-2,1,-1,-1,-1
6344.134,0,0,0,0,0,0,-1,0
6344.134,-1,1,-1,1,-1,-1,-1,-1
6350.624,-1,-2,-1,0,-1,-1,0,0
6350.624,0,0,-4,0,-2,0,-2,-1
6367.094,-1,-1,-2,0,-1,1,-2,-1
6367.094,0,0,0,-2,1,1,-1,0
6369.088,-1,0,0,-2,-1,-1,0,-1
6369.088,0,1,-1,-1,0,-1,0,-2
6390.149,1,2,2,0,0,-3,0,0
6390.149,-2,1,-3,1,0,0,-1,1
6391.154,-1,-2,-1,-3,-2,-1,0,0
6391.154,-1,-1,-1,-1,-1,-1,1,0
6403.826,1,1,-1,-1,-1,2,-3,-1
6403.826,-1,-2,0,2,0,-2,0,0
6411.018,-1,2,-4,1,-1,-1,1,1
6411.018,0,-1,-2,-2,0,1,2,0
6427.391,0,-2,-1,0,-1,-1,0,1
6427.391,1,-2,-1,0,0,-1,0,-2
6428.895,0,0,0,0,-1,-1,-1,-1
6428.895,-1,-2,0,-1,-1,-1,-1,-1
6449.98,-1,-1,2,1,0,0,0,2
6449.98,-2,0,1,-2,0,-1,0,0
6451.001,0,0,-3,-3,0,0,0,0
6451.001,1,0,-1,-1,0,-1,1,-3
6463.522,-3,-1,0,0,-1,0,-3,-1
6463.522,2,-1,0,-1,0,0,-2,1
6470.69,1,-2,0,2,0,0,1,-1
6470.69,-2,-3,0,1,-1,-1,0,0
6487.587,1,-1,1,-1,-4,-1,0,0
6487.587,-2,3,-1,-1,-2,-1,0,0
6488.596,0,-1,-1,-1,0,0,-1,-1
6488.596,0,-1,-2,1,0,0,0,1
6510.078,1,-2,2,2,0,-1,-1,-2
6510.078,1,0,-1,0,0,-1,-1,0
6511.16,-2,1,-3,0,0,0,-2,1
6511.16,-1,-1,0,-1,0,-1,0,-1
6524.576,0,0,-1,-2,0,0,-1,-1
6524.576,1,-3,-1,-1,1,1,1,-1
6531.235,-1,-1,0,1,-1,0,1,-2
6531.235,-3,5,-4,-2,-2,-1,0,-1
6547.02,0,-1,3,-1,0,0,1,1
6547.02,-1,-1,1,0,-2,0,-1,-1
6549.125,1,0,0,0,0,-2,-1,0
6549.125,-1,-2,1,0,-2,-1,-2,-1
6569.409,0,1,-1,0,-1,-1,-1,-1
6569.409,-2,-2,-1,0,-1,-1,-1,-1
6571.474,0,-1,0,0,0,0,2,-1
6571.474,-1,-1,-1,-1,1,0,-2,2
6584.731,-1,-1,1,0,1,0,-1,0
6584.731,0,0,0,-1,-1,1,-2,-1
6591.384,-3,-2,-1,0,-2,0,-1,0
6591.384,-1,-1,2,0,0,-2,2,-1
6607.726,0,0,-1,1,0,-1,0,-1
6607.726,0,0,-1,0,0,-1,-2,0
6608.738,0,2,-1,-2,1,-1,0,-2
6608.738,-2,-2,-1,-1,1,-1,0,-2
6629.565,0,0,1,0,-2,-1,1,0
6629.565,0,-2,0,0,-1,0,2,1
6631.564,0,-1,-3,-2,0,0,0,0
6631.564,-2,-2,-2,-2,-2,0,-1,-2
6644.36,-1,0,0,0,-2,1,-2,0
6644.36,-2,-1,1,1,1,-1,-1,-1
6658.599,-1,-1,0,1,-2,-1,2,2
6658.599,1,1,0,-1,-1,1,0,-1
6667.451,1,0,-4,-1,0,-1,0,0
6667.451,0,-1,1,0,0,-2,1,-1
6669.099,0,0,0,0,1,0,-1,0
6669.099,1,0,-2,-1,0,-1,-1,0
6690.255,1,-1,0,1,-1,0,-2,-1
6690.255,-1,-1,1,-2,-1,1,1,-1
6691.252,0,-1,-1,-1,0,-2,1,-1
6691.252,0,0,0,-3,-1,2,-1,1
6703.421,-2,-1,-1,0,-1,1,-1,-1
6703.421,2,0,-1,-1,1,-1,-2,1
6711.754,-2,0,0,-1,0,-1,0,-2
6711.754,0,2,0,0,0,0,0,0
6726.574,-1,-1,2,0,0,1,1,0
6726.574,-1,-1,-1,-1,-1,-1,-1,0
6728.965,0,3,-4,-2,-2,-1,-4,1
6728.965,2,-1,-1,0,0,-1,2,-1
6749.344,-2,0,-2,-1,-1,1,1,0
6749.344,0,0,0,0,2,0,-2,0
6751.529,0,-1,0,-3,-1,-1,-1,1
6751.529,-1,0,0,0,0,-1,-4,1
6763.955,-1,-1,0,0,0,0,-2,1
6763.955,0,0,-3,-2,-1,0,2,1
6772.517,0,-2,0,-1,1,0,2,-2
6772.517,1,-1,0,-2,-1,-2,-2,-1
6787.157,0,2,2,1,-1,-1,0,0
6787.157,-1,-2,-2,1,0,0,-1,-1
6789.299,0,0,-2,-2,1,-1,-1,1
6789.299,-1,-1,1,1,1,-1,-1,0
6808.904,1,-3,0,0,-1,-1,0,0
6808.904,2,0,-1,-1,-2,0,0,-1
6811.65,0,-2,-2,-2,3,-1,-1,-1
6811.65,-2,1,-2,-2,2,-1,0,-1
6823.923,3,-1,3,0,1,-2,-1,0
6823.923,-1,-1,2,3,-1,1,0,1
6832.574,-2,-1,-9,-5,0,2,-2,-1
6832.574,0,-3,-1,-1,-2,1,-1,1
6847.424,1,0,1,0,1,0,0,-1
6847.424,-1,-2,0,-1,-1,0,-1,0
6848.653,-2,2,3,2,0,0,1,-1
6848.653,-1,-2,-1,0,2,-1,-1,0
6869.691,0,-3,-3,1,1,-1,1,-1
6869.691,2,0,0,0,0,-1,-3,0
6871.734,-2,-1,0,0,-1,-2,-1,-1
6871.734,-2,-1,0,1,-1,0,0,0
6883.59,-1,-4,4,1,-1,0,1,1
6883.59,-1,0,-4,-3,0,0,-1,-2
6892.086,2,-1,0,1,-1,-2,1,0
6892.086,0,-1,0,2,1,1,0,-1
6907.043,-1,2,-4,-1,-2,1,0,0
6907.043,-1,-1,-2,-2,-2,1,2,0
6908.046,2,-1,3,-1,-1,0,1,0
6908.046,1,2,1,-1,-3,-1,1,-2
6929.35,-1,1,0,-3,0,0,0,-1
6929.35,0,1,-1,-1,0,-2,-2,1
6931.77,0,-1,-1,1,-1,-1,0,-1
6931.77,0,0,-2,-1,0,-1,-1,1
6943.392,-1,1,0,0,-2,2,-3,-1
6943.392,0,-1,-3,-1,0,0,1,1
6952.788,-3,-4,1,1,1,1,0,-1
6952.788,0,1,0,0,-2,-1,0,0
6967.779,0,1,-3,-2,-1,0,-3,0
6967.779,0,0,0,1,0,-2,-1,1
6968.83,1,1,2,-2,-2,0,-1,-1
6968.83,0,-1,0,0,0,0,-1,0
6989.433,1,1,3,1,-1,-2,-2,0
6989.433,0,1,-2,0,-2,0,0,-3
6991.942,-1,2,-3,-1,-2,-1,-1,1
6991.942,-1,-6,5,2,3,-2,0,1
7003.512,-1,1,-3,-1,0,-2,-3,0
7003.512,1,-3,0,2,-1,1,1,0
7012.444,0,-2,-2,0,2,0,1,-1
7012.444,0,1,-2,-2,-1,-2,-1,0
7027.368,0,1,1,1,1,-1,-1,0
7027.368,-3,0,0,-1,0,1,0,-1
7029.373,0,0,-2,-2,0,1,0,1
7029.373,-1,0,-2,-1,0,-3,0,-1
7049.715,0,0,1,-1,1,0,0,0
7049.715,-2,0,3,-1,1,0,-2,2
7051.825,0,-1,-1,1,0,0,0,-1
7051.825,0,1,-3,0,-1,-2,-1,-1
7063.663,3,-4,1,0,1,-1,1,-1
7063.663,-2,0,-3,0,0,0,1,0
7080.016,-1,1,0,-1,1,1,2,0
7080.016,0,1,-1,0,1,2,-2,1
7087.726,0,0,0,0,-1,0,-1,1
7087.726,0,-1,-1,-2,-1,-1,-2,2
7088.9,-1,0,0,0,1,0,-2,-1
7088.9,-1,1,1,1,-3,0,0,0
7109.502,0,-2,1,-1,-2,0,2,0
7109.502,0,-1,0,0,-1,0,0,-2
7111.555,-1,-2,-3,1,-2,-1,1,0
7111.555,0,-1,4,1,2,2,-1,0
7131.98,0,0,1,0,-1,2,0,1
7131.98,0,0,-2,1,0,-2,-1,-1
7134.286,-1,-1,-1,1,-1,-1,0,-1
7134.286,1,0,-3,-2,-1,-1,-2,-1
7154.859,-2,0,-2,-1,0,0,-1,-1
7154.859,0,0,0,1,1,1,1,0
7156.965,-1,2,0,0,-1,0,-2,-2
7156.965,-3,-5,1,-1,-1,0,0,-1
7169.785,0,-4,4,-1,0,-1,-2,-2
7169.785,0,0,-1,-2,-2,-1,-1,-1
7171.883,-1,-2,-2,0,-1,0,1,0
7171.883,1,1,0,0,2,-1,0,1
7192.489,0,-1,-4,1,0,1,0,0
7192.489,-1,-1,-2,-1,-1,-2,-1,0
7193.497,1,-2,0,1,1,-1,0,1
7193.497,-1,1,2,0,1,1,0,-1
7207.575,1,1,1,0,0,0,0,0
7207.575,-1,1,0,1,-1,1,1,-3
7209.078,-1,0,-2,-1,0,0,-1,-1
7209.078,-2,-1,-2,-2,-1,-2,-1,2
7230.327,2,-1,-1,0,-1,0,-1,-1
7230.327,-1,-1,-1,-1,0,0,0,-1
7231.365,1,-1,-1,0,0,-1,-1,-1
7231.365,0,1,0,-1,0,-1,1,-1
7252.481,-2,-2,0,2,-2,-1,0,-3
7252.481,0,-1,0,-2,0,-1,0,-1
7253.522,-1,-2,-1,-3,-1,-1,0,1
7253.522,0,1,2,0,-1,0,-1,-1
7266.773,1,1,-4,-3,-2,-2,0,-3
7266.773,-1,-3,3,0,1,2,0,2
7273.233,0,0,-1,-1,1,-1,-1,0
7273.233,-1,-1,-2,-1,-1,-2,1,0
7289.283,0,-1,1,1,1,0,0,0
7289.283,-2,0,1,-1,-1,-1,0,0
7291.853,-1,1,2,-1,-2,0,0,-1
7291.853,3,-1,0,1,-1,-1,0,-1
7312.142,0,0,-2,0,-1,-1,0,0
7312.142,0,-2,-1,0,-1,1,-1,0
7314.135,1,-3,1,-2,2,0,1,1
7314.135,0,2,0,-2,1,-1,-1,-2
7326.36,1,1,3,0,1,-1,-2,-2
7326.36,-1,1,-2,0,2,-3,1,0
7333.499,0,-1,0,-2,-1,0,-1,-2
7333.499,0,-2,-1,-1,2,-1,1,0
7349.795,-1,-2,0,0,-1,-1,-1,-1
7349.795,-2,0,0,-1,-2,-1,-1,-2
7350.932,1,-2,-1,-1,-2,-1,0,1
7350.932,1,-3,-2,2,-1,0,-2,0
7372.709,0,0,2,-1,-1,-1,-2,1
7372.709,-1,-1,-3,-1,0,-1,0,-2
7373.928,-3,1,-5,-2,-2,1,2,-1
7373.928,0,-5,6,1,1,1,-2,-1
7386.359,-3,0,-2,-1,-1,-1,1,3
7386.359,0,-1,0,-1,-2,-1,1,0
7393.95,-1,-1,0,-2,1,0,-2,-2
7393.95,-3,-1,-4,0,-2,-1,-2,-1
7410.223,1,-1,-2,1,1,1,-1,0
7410.223,0,0,1,-1,0,-1,0,-1
7411.327,-1,-1,-3,-1,-1,0,-2,0
7411.327,-1,4,1,-2,-2,-1,0,-1
7432.251,-1,-2,-2,1,-1,0,0,0
7432.251,1,1,-1,-1,-2,-1,-1,2
7434.244,-1,0,0,0,-1,-2,0,0
7434.244,1,-2,-1,-1,0,2,0,-1
7449.192,-1,2,0,1,-1,1,1,1
7449.192,-1,-1,-1,0,1,0,-1,0
7453.179,-1,0,0,-1,0,0,-1,0
7453.179,0,-1,0,0,0,1,1,0
7470.174,1,-1,0,1,-1,0,-2,-1
7470.174,-1,1,0,1,0,2,3,0
7471.171,1,1,-2,0,-2,-1,-1,0
7471.171,-1,1,-3,-3,0,0,-1,1
7491.828,0,0,3,-2,-1,0,0,-1
7491.828,1,-1,-4,-2,-1,-2,-1,-2
7493.826,-1,-3,0,1,1,0,2,1
7493.826,0,1,1,1,-1,-1,1,0
7506.247,-1,0,1,0,2,0,-2,-1
7506.247,-1,2,-2,0,-2,-1,1,-2
7513.277,-1,0,0,-1,0,0,-1,1
7513.277,-1,1,1,0,-2,-1,-1,-1
7529.887,1,-1,-2,-1,0,-2,0,-1
7529.887,-2,-1,0,-1,-1,-1,-1,0
7531.935,1,-2,-1,1,1,1,2,-1
7531.935,1,1,1,-1,-1,-1,0,-1
7552.565,-1,0,3,0,0,0,-1,0
7552.565,-2,-4,6,1,2,-1,-2,1
7553.696,0,0,-3,-2,-2,-3,-1,-2
7553.696,0,1,-1,-1,0,0,0,-1
7566.489,0,-2,0,0,-1,0,0,-1
7566.489,-1,0,-2,-1,0,2,-1,-1
7573.864,-1,1,3,0,0,-2,0,-1
7573.864,-1,-1,-1,-2,-2,1,-1,1
7590.11,0,1,-2,1,-4,-1,-1,0
7590.11,-1,0,-1,0,1,0,1,0
7591.105,0,-1,-1,-2,0,-1,2,-4
7591.105,1,-1,2,0,-2,0,-2,1
7612.04,0,0,0,-3,-1,1,-2,1
7612.04,0,0,-4,-1,-1,-1,0,0
7614.241,0,-2,5,0,0,0,2,-1
7614.241,1,0,-3,-3,-1,-2,-1,-1
7625.66,-1,-2,0,-2,-1,0,-1,-2
7625.66,0,1,1,1,-3,0,-2,-1
7634.674,0,2,-4,-3,-1,0,0,1
7634.674,0,-1,0,1,1,-2,-2,0
7650.169,-1,1,1,0,0,0,-1,0
7650.169,-1,0,-2,-2,-2,0,0,0
7651.176,-2,-2,1,1,0,-1,0,0
7651.176,0,-1,1,0,0,-1,0,-1
7672.162,1,-2,-1,0,0,-1,1,-1
7672.162,0,1,1,-1,0,0,-1,-2
7674.163,-2,-1,-1,-1,0,1,-1,1
7674.163,-1,1,1,-1,-2,-1,0,0
7685.877,1,-1,2,-1,-1,0,-1,1
7685.877,1,-1,-3,-2,1,-1,-1,1
7695.039,-2,0,-6,-1,0,0,-1,-2
7695.039,1,0,3,2,0,0,-1,1
7710.018,-1,-1,0,2,1,-1,1,0
7710.018,-1,-3,0,-1,0,-1,0,-2
7711.623,0,1,-3,-2,-1,-1,-1,-1
7711.623,0,1,-1,-1,0,-1,-2,-1
7732.363,1,-1,-2,-1,-2,0,0,-1
7732.363,-1,-1,2,1,-2,-2,1,1
7734.355,-2,-2,0,2,0,-1,0,1
7734.355,-1,0,-1,0,-1,1,1,-1
7745.984,0,-1,-2,-1,1,2,1,0
7745.984,1,0,-2,-1,0,-2,0,1
7771.001,0,1,-2,0,-1,-1,-1,0
7771.001,-1,-6,5,3,0,1,-1,-1
7772.488,-2,4,-4,1,0,0,0,-1
7772.488,-1,-1,-4,-1,0,1,-1,0
7775.68,2,-1,-2,-1,-1,0,2,0
7775.68,1,-1,-2,0,-2,0,0,0
7791.954,-1,-1,2,-1,-1,-1,0,0
7791.954,-1,-1,2,1,2,-1,-1,-2
7794.326,-1,-2,2,1,0,-1,0,1
7794.326,0,4,-3,-2,-1,0,0,-2
7806.333,2,1,1,0,-4,-1,0,1
7806.333,-1,0,-1,0,-2,0,-2,0
7814.826,-2,0,-1,0,-1,-1,-1,-2
7814.826,-2,0,-1,-1,-1,-1,0,2
7829.427,-1,-2,-1,1,2,-1,-1,-2
7829.427,1,5,-4,-2,-2,0,0,-1
7843.748,0,2,6,0,2,2,-3,-1
7843.748,0,2,2,0,0,1,1,0
7852.764,-2,-2,2,0,-1,-2,0,0
7852.764,-2,-1,-2,0,-1,-2,0,0
7853.999,0,-5,2,1,1,0,1,0
7853.999,-1,0,-4,1,0,0,-3,-1
7866.159,1,1,-3,-3,-2,0,-1,0
7866.159,-1,-3,0,0,-3,2,-1,1
7874.419,0,1,-3,-1,-1,-2,0,-2
7874.419,-1,-1,-2,-1,0,-3,-1,0
7890.104,-1,-3,-3,-1,2,0,0,-1
7890.104,0,-1,-1,-3,-2,1,2,1
7891.114,1,0,1,-1,-1,0,1,0
7891.114,-1,-1,0,-2,-2,-1,-1,-2
7919.984,1,0,1,-1,-1,-1,-2,0
7919.984,0,-1,1,-1,-1,-1,-1,1
7921.004,-2,2,-5,-2,-1,-1,0,0
7921.004,-1,-1,2,1,0,0,0,2
7925.839,-3,-1,-2,0,0,-1,-3,0
7925.839,-2,-2,-1,2,1,-1,1,1
7934.297,-2,-1,-3,-1,0,-2,-1,0
7934.297,1,-1,3,-3,-1,-2,-3,-1
7950.38,-2,-2,0,1,0,0,2,-2
7950.38,0,2,0,-3,1,-1,1,0
7951.596,-1,1,0,0,0,-2,1,-1
7951.596,0,0,-1,-1,1,1,1,0
7971.879,0,0,0,0,0,1,-3,1
7971.879,-2,0,0,-1,0,-1,1,0
7973.906,-1,1,-1,-1,0,0,-1,0
7973.906,1,-2,0,0,-1,-1,-1,0
7986.605,0,-2,-1,0,-2,-1,1,-1
7986.605,0,0,-7,-2,0,-2,-1,1
7995.076,0,-6,4,3,0,0,3,1
7995.076,1,0,-1,0,0,-1,1,0
8009.258,0,3,1,0,0,-1,0,1
8009.258,-2,-1,-2,1,0,0,1,-1
8011.063,-1,1,-1,-2,-2,-1,-3,0
8011.063,0,-1,0,0,2,0,1,-1
8031.658,0,-2,-1,0,2,1,0,0
8031.658,1,-4,-1,-1,0,0,0,0
8046.509,2,-1,-2,1,1,2,1,-1
8046.509,-1,0,1,0,-1,0,1,-1
8055.205,-3,-1,-1,-1,0,-2,-1,-2
8055.205,-2,0,1,-1,0,-2,-1,0
8056.216,0,1,-2,-4,0,-1,0,-1
8056.216,0,-1,-1,1,0,0,-1,1
8069.775,1,-1,-1,-1,0,2,-1,1
8069.775,-2,-2,0,2,-3,-1,-2,-1
8075.752,-1,1,1,-2,-1,-2,-1,0
8075.752,1,1,0,0,-1,-1,-1,-2
8092.696,-1,3,-1,-2,-1,-1,-1,0
8092.696,2,-1,-1,-1,0,2,0,0
8093.692,-2,-4,-3,-1,0,2,-3,1
8093.692,-2,1,-1,0,0,0,1,0
8123.213,0,-2,0,0,0,-2,-1,0
8123.213,0,2,0,-3,-3,-2,-1,-2
8124.317,0,0,-2,-2,-1,1,0,-1
8124.317,1,1,0,0,-1,-1,-3,0
8130.017,1,-2,3,0,-2,0,-1,3
8130.017,-2,2,-1,1,2,-2,2,1
8131.655,0,-1,-1,-2,0,-2,-2,2
8131.655,-1,-7,6,3,2,0,-3,-2
8152.229,-1,2,-3,0,-3,-1,-2,-1
8152.229,-1,-2,-1,0,-1,-3,-1,0
8154.321,0,1,1,-1,0,2,2,-1
8154.321,-1,0,-2,-1,-2,-1,0,0
8174.888,0,-2,-1,0,2,1,-2,-1
8174.888,-1,-2,-2,-1,1,0,-1,0
8176.044,-5,0,-1,1,0,-1,-1,-1
8176.044,0,1,0,-1,0,1,-1,0
8190.26,-2,-2,3,0,0,-2,2,-2
8190.26,0,-2,-1,0,1,3,1,0
8191.732,0,2,0,-2,0,-2,-1,1
8191.732,2,4,-5,-1,-1,-2,-3,-1
8212.682,-6,1,-1,2,0,-1,0,1
8212.682,1,1,0,0,0,0,-1,1
8214.193,-2,0,-1,0,-1,0,-1,-2
8214.193,0,-2,2,0,0,1,-2,-2
8235.045,2,-1,-4,-1,2,1,-1,-1
8235.045,2,-2,-1,-1,-1,-1,-1,-2
8236.159,1,-1,0,-1,1,0,0,0
8236.159,0,-2,2,-2,-1,0,0,1
8249.197,-3,1,2,0,-1,-1,0,-1
8249.197,-2,1,3,1,1,0,1,0
8256.051,0,3,-11,-6,-3,-3,-1,-2
8256.051,-1,0,1,1,1,1,-1,0
8272.047,1,-1,-6,-1,-1,1,0,1
8272.047,1,-4,5,2,-1,1,0,-1
8274.369,-3,-1,-1,0,-2,-1,-1,-2
8274.369,-1,1,1,1,-1,-1,0,0
8294.362,-1,0,-1,1,0,0,0,1
8294.362,-2,1,-4,-1,-1,0,-1,-1
8296.319,2,-1,0,0,-1,1,0,-1
8296.319,0,0,1,0,-3,0,0,0
8309.225,1,3,2,-1,0,0,0,0
8309.225,0,0,-4,-1,2,-2,1,2
8315.937,-1,-3,3,0,2,0,1,0
8315.937,0,1,-2,0,-1,1,1,0
8332.756,0,5,-9,-3,-6,-4,-1,-3
8332.756,-2,-1,-1,-3,0,-2,0,-1
8333.753,0,-1,0,2,1,0,-1,1
8333.753,0,-1,-1,0,0,1,2,0
8354.582,1,0,-1,-2,0,1,2,1
8354.582,-2,-1,-1,1,-1,1,0,-1
8356.612,-2,0,3,2,1,0,-2,1
8356.612,1,-3,-1,-1,0,0,-2,-2
8369.561,2,-5,2,2,0,0,0,1
8369.561,0,3,-3,-2,0,0,0,1
8375.547,-2,1,3,1,0,2,-1,1
8375.547,2,0,0,0,1,-3,0,-1
8392.111,-2,-4,3,-2,-1,-1,0,-1
8392.111,-3,4,-4,-3,-1,1,0,-1
8394.241,0,5,-5,-1,0,-2,-1,-2
8394.241,-2,-1,2,-1,-1,0,0,1
8415.057,0,-2,3,1,1,0,-1,-2
8415.057,1,-1,-4,-2,-3,-2,-3,-2
8416.041,1,-1,-2,0,-2,0,-3,0
8416.041,-2,-2,0,-3,1,1,1,0
8429.401,1,0,0,-1,1,-1,1,-1
8429.401,1,1,-2,-3,0,0,-1,0
8436.302,-2,-1,2,0,0,0,1,0
8436.302,0,0,1,0,-1,-2,-1,-1
8452.104,-1,2,-4,-3,-3,1,-2,0
8452.104,0,-2,-5,3,1,0,0,-2
8453.531,-1,-3,3,-1,-1,-1,1,-1
8453.531,1,2,-1,-1,-1,0,-3,1
8475.204,-2,-5,5,4,1,0,-1,0
8475.204,-2,-4,12,2,1,-1,-1,0
8476.31,0,-1,-3,-2,-1,-1,1,2
8476.31,0,0,-2,0,-1,0,0,0
8488.919,0,1,-5,1,-2,0,0,1
8488.919,-1,-2,0,-1,0,0,0,-1
8496.474,0,-1,2,1,-1,-3,-2,-1
8496.474,0,-2,1,-2,-1,-1,-3,-1
8512.007,-1,1,-1,-1,3,-1,2,0
8512.007,-1,-1,-1,0,-2,0,1,0
8513.028,1,2,-1,-2,0,0,0,0
8513.028,1,1,0,1,0,-1,-1,-1
8534.8,-2,-1,-3,0,-2,1,0,-1
8534.8,1,-2,0,-2,-1,-1,1,2
8540.973,-1,2,2,-2,-2,0,-1,1
8540.973,-2,-2,-5,-3,-2,1,-4,-1
8548.619,-3,-8,2,2,2,1,1,1
8548.619,-2,1,-1,-1,1,2,3,0
8557.029,0,2,-4,-2,-3,0,-1,0
8557.029,2,5,-5,-1,0,-1,-1,0
8572.065,-2,-28,23,7,2,2,1,2
8572.065,-1,1,-3,0,-1,0,-2,0
8573.263,2,-2,0,1,-2,-2,0,-1
8573.263,-4,2,-7,0,1,0,0,-1
8595.817,5,8,-10,-3,-3,-2,-1,-1
8595.817,-2,0,-1,-2,-2,-1,0,-3
8596.998,-3,-9,9,1,0,0,1,-1
8596.998,0,-1,8,2,-3,-1,0,0
8607.75,-1,2,-8,-5,-1,-1,-1,0
8607.75,-2,0,2,0,0,-1,1,1
8616.79,0,6,-6,-3,1,0,0,1
8616.79,1,-2,3,0,-2,0,0,0
8632.625,0,2,1,-1,0,-1,-1,0
8632.625,2,1,-2,1,2,-1,0,0
8633.637,-1,-3,0,1,0,-1,-1,2
8633.637,0,-1,4,2,0,2,-1,1
8654.104,0,1,-1,0,-2,0,-1,-1
8654.104,0,-1,0,-1,0,-1,-1,-1
8656.573,0,1,-1,1,0,-1,0,0
8656.573,0,-1,0,0,-1,-1,-2,-1
8668.793,0,7,-5,-2,1,0,0,0
8668.793,1,-1,-1,0,0,1,1,0
8677.385,-3,-4,3,1,2,0,3,0
8677.385,-1,-6,9,2,0,0,0,0
8692.064,-2,1,-1,-1,-1,-1,-2,-1
8692.064,0,-3,0,0,-1,-2,-2,-1
8694.141,2,-3,0,-2,-1,1,0,-1
8694.141,0,3,-4,-1,-3,0,1,0
8715.256,0,1,1,1,1,1,1,-1
8715.256,-1,2,-1,0,0,-3,-3,-1
8716.494,1,-1,-2,-1,-2,-1,-2,-2
8716.494,0,-2,-4,-1,0,0,-2,0
8728.668,0,1,-3,1,1,1,0,0
8728.668,-1,2,-6,-3,0,1,1,0
8743.949,0,4,1,-1,2,0,-1,1
8743.949,0,0,1,1,-1,0,-2,0
8751.664,1,2,-1,0,-1,-1,-1,0
8751.664,1,-1,0,-3,-2,-2,0,0
8754.109,0,1,-2,-3,0,-3,1,0
8754.109,0,-2,2,1,2,-3,2,-1
8775.273,-1,1,2,1,-1,0,-2,0
8775.273,0,-2,-1,0,0,2,-1,-2
8776.27,2,-2,-1,1,-2,0,0,-2
8776.27,1,-1,0,-1,0,0,-1,-1
8787.989,-3,-1,-2,-2,0,-2,0,-1
8787.989,-2,-2,0,0,-1,-1,-1,2
8805.479,-2,0,1,1,0,-1,-3,-2
8805.479,-1,1,-6,-2,-1,0,0,-1
8819.419,0,-3,2,-1,-1,-1,3,1
8819.419,0,-1,0,0,0,0,0,0
8821.645,-1,-1,0,1,1,1,-2,0
8821.645,-1,3,0,-1,-3,-1,-1,-2
8835.046,-2,1,-2,-4,-1,-1,-3,-1
8835.046,0,-2,0,-1,0,-1,-2,0
8836.064,0,-3,-5,0,-1,3,0,-1
8836.064,2,3,0,-1,0,-1,0,0
8856.961,-3,-7,6,5,2,-1,1,-1
8856.961,0,3,-3,-1,-2,0,0,1
8858.448,0,0,1,-1,1,-1,-1,0
8858.448,-2,-5,2,0,-1,1,0,0
8880.535,0,3,-4,-3,-3,-1,1,0
8880.535,-3,-1,-2,0,0,1,0,-2
8882.573,-1,0,1,0,-1,0,-2,0
8882.573,0,1,2,-1,-1,-1,0,-2
8894.53,-1,-5,1,2,1,0,-1,0
8894.53,-1,0,0,-1,-2,0,-1,-2
8894.53,-1,1,-5,1,0,-1,1,-1
8894.53,0,1,2,2,-2,1,0,2
8916.709,1,3,-5,-4,0,2,-1,-2
8916.709,1,-2,0,0,-2,-1,1,1
8916.709,0,-1,3,-2,0,0,1,0
8916.709,-2,0,-1,0,0,-2,-1,-2
8931.968,1,1,-4,-2,1,-2,-2,1
8931.968,-3,1,-4,1,1,2,-1,0
8932.474,0,-1,4,0,-2,-1,2,1
8932.474,0,-2,0,-1,1,1,1,0
8954.612,-2,-2,3,1,-1,-2,0,-1
8954.612,0,-2,1,-2,1,-1,-1,-1
8954.612,0,0,-3,-1,-1,0,-2,0
8954.612,-1,-2,-1,-1,1,-1,-2,-2
8976.444,0,2,-1,0,-3,0,2,-1
8976.444,0,1,-3,0,-2,-2,0,-1
8977.459,0,-1,1,0,-2,0,0,-1
8977.459,0,0,-3,-2,0,0,-1,0
8991.257,-1,1,-2,-1,-2,-2,-1,-1
8991.257,-3,-1,-3,-2,1,-1,0,0
8992.28,-1,1,0,0,0,1,-1,1
8992.28,3,-3,6,1,-1,0,1,2
9013.945,1,0,-3,-2,1,-1,0,-1
9013.945,1,-1,0,-1,-1,-1,0,0
9015.012,-1,-8,5,2,2,1,-1,-2
9015.012,-1,-1,1,1,0,0,-2,-1
9036.613,0,1,1,0,0,1,1,0
9036.613,0,-4,3,1,1,-1,0,1
9037.664,-2,-1,1,10,-1,-1,-1,1
9037.664,-1,1,-2,-9,-2,1,-1,0
9051.875,0,1,-1,-18,-2,0,0,-1
9051.875,-2,0,-4,-1,0,-2,-2,-1
9051.875,0,-1,1,1,-2,-2,-1,-2
9051.875,-2,-2,-2,-2,1,-1,-1,-3
9074.254,0,1,-5,-3,-3,-2,-1,1
9074.254,-1,2,-11,-31,-4,-3,0,-2
9081.516,1,0,1,2,2,-1,-1,-2
9081.516,0,-1,3,16,0,0,0,0
9097.049,1,-1,8,0,2,1,-2,0
9097.049,0,2,-1,20,1,0,1,0
9098.047,-1,1,-10,-44,-7,-3,0,0
9098.047,0,-2,-3,-23,-2,-1,-3,-4
9111.967,0,0,0,11,1,1,-2,0
9111.967,2,-3,5,14,0,-1,1,0
9111.967,1,0,3,8,1,0,0,2
9111.967,-2,0,-1,8,2,1,0,0
9134.188,-1,0,-6,-3,-1,-1,1,-1
9134.188,0,1,2,1,0,0,0,-2
9134.188,2,-1,-1,5,1,0,-1,0
9134.188,1,2,-1,-5,-6,-1,1,1
9156.421,-2,0,-1,6,1,-1,0,-2
9156.421,-2,0,1,-2,0,3,-1,-2
9157.562,0,1,2,2,-1,-2,-2,-1
9157.562,-2,0,1,5,0,1,-2,1
9173.147,-1,0,0,-1,-2,-2,1,-1
9173.147,-1,0,-3,-2,0,0,1,1
9174.224,1,2,-2,1,0,-1,-3,0
9174.224,-2,0,3,0,1,0,-1,-2
9194.103,1,-2,-2,5,-1,-1,-1,-1
9194.103,1,1,2,-9,0,-2,-1,0
9195.099,0,0,-1,3,-2,0,-2,-2
9195.099,1,-1,-2,5,0,-2,-1,-2
9216.18,1,1,0,12,1,-2,1,0
9216.18,-2,-2,0,-13,-2,-1,0,-1
9233.291,0,2,-3,-8,-2,0,1,0
9233.291,1,-3,-2,-1,0,0,-1,1
9234.289,0,-5,5,9,2,0,-1,-1
9234.289,0,-1,-1,9,1,-1,0,1
9235.285,-1,-1,-4,3,0,0,-1,-2
9235.285,-1,0,-2,-1,-3,1,-1,0
9254.518,-3,-2,-4,-6,0,-1,-1,0
9254.518,1,0,-2,1,0,1,-1,0
9254.518,-1,-2,3,-2,2,1,2,1
9254.518,-1,-5,8,6,1,1,1,2
9276.815,-1,3,1,-2,-2,-1,-1,0
9276.815,-1,1,-2,-3,-1,1,-1,-1
9277.838,-1,-3,0,15,0,-1,-1,-2
9277.838,0,3,-3,-20,-3,0,-1,1
9291.488,-2,1,-3,-6,-1,-1,0,-1
9291.488,-1,-1,0,1,-1,-2,-2,0
9292.543,-1,1,2,1,-1,0,0,2
9292.543,0,1,-5,12,0,-1,-1,-1
9313.761,2,-2,1,-5,-2,1,0,0
9313.761,-2,-7,6,-4,1,1,0,-1
9314.777,1,1,0,2,1,0,0,0
9314.777,-2,-1,-2,0,-1,-1,1,-1
9336.39,-1,0,-3,5,2,0,0,-3
9336.39,-1,-2,-1,6,1,0,-1,1
9337.393,-1,1,1,-4,0,-1,0,-1
9337.393,1,-1,-1,3,-1,2,0,0
9360.031,-2,-1,-5,-5,-1,-1,0,1
9360.031,-1,-1,3,13,0,0,2,0
9361.095,0,-6,4,-20,0,1,-1,-1
9361.095,1,3,-1,0,-2,-2,-3,-3
9374.302,1,-1,-2,-6,-1,0,-1,-1
9374.302,0,0,-1,2,-2,0,1,0
9375.435,-1,1,-1,7,-1,0,-2,-1
9375.435,-1,-1,3,0,2,1,0,0
9396.174,-1,-1,0,-5,1,0,-1,-1
9396.174,-2,1,-3,-1,0,-1,-3,-1
9397.268,2,-1,9,6,3,0,1,1
9397.268,-2,4,-3,-4,-2,-1,-1,-2
9411.464,0,4,-2,3,-3,-2,-3,-2
9411.464,1,3,-5,-4,-2,-1,-2,0
9412.484,0,1,0,0,-2,0,0,0
9412.484,-2,-1,1,0,1,0,0,0
9433.869,0,-2,2,0,-1,2,3,0
9433.869,-1,0,-2,3,0,-2,-1,1
9434.941,1,0,-1,5,-4,0,0,0
9434.941,-2,3,-3,-6,0,0,-1,-1
9456.516,0,1,8,20,2,1,-2,-1
9456.516,1,2,-4,-22,0,-1,1,-3
9456.516,0,-1,-8,22,-3,-1,0,0
9456.516,-1,-4,-12,-83,-8,-3,-1,-1
9472.057,0,-2,2,-3,0,-1,0,2
9472.057,-1,-5,6,13,2,1,0,1
9472.057,0,-1,5,23,7,2,-1,-2
9472.057,0,0,3,25,1,0,0,0
9493.668,0,-3,-5,-8,-1,0,-2,-1
9493.668,0,1,1,1,0,-1,2,0
9495.005,0,0,-1,-10,-3,0,-1,0
9495.005,2,-4,2,8,3,0,-1,-1
9516.918,-7,-1,-6,-6,-3,0,0,1
9516.918,2,-3,4,10,1,-2,0,0
9516.918,0,2,-3,-15,-1,0,0,-1
9516.918,2,0,3,14,2,0,0,0
9531.854,1,1,-2,24,1,-1,-1,0
9531.854,1,0,-8,-72,-7,-1,-1,-1
9532.814,-1,0,-2,-8,1,0,-1,0
9532.814,0,-2,0,21,2,0,-2,0
9561.805,-2,-3,2,1,0,0,0,0
9561.805,-2,2,2,21,0,0,0,-2
9562.872,3,-1,8,5,3,0,-1,0
9562.872,0,1,-9,4,-1,-1,-1,-1
9585.157,0,-7,1,-11,-6,-2,1,0
9585.157,-1,1,-4,-9,1,1,-1,0
9585.157,-2,3,3,-5,-1,-2,-2,-1
9585.157,0,-1,1,21,-1,1,-2,0
9590.953,1,-1,0,-1,2,0,1,0
9590.953,-2,-1,1,15,0,0,1,0
9598.434,-2,1,-2,-1,-1,0,-1,-2
9598.434,0,1,3,2,0,0,2,2
9614.299,1,-1,-1,-10,0,-2,2,-3
9614.299,-2,1,-4,6,0,0,-1,0
9615.344,-1,0,0,5,0,-1,-1,2
9615.344,-1,-1,1,11,1,0,0,1
9636.407,0,5,-9,-38,0,0,-2,1
9636.407,-1,-6,8,13,-1,-1,1,-1
9637.418,1,3,-2,-9,-3,-1,-2,1
9637.418,-2,-3,5,7,-1,2,3,-1
9659.844,-3,-2,-2,6,3,0,1,-1
9659.844,-1,0,-2,10,-1,0,-2,-1
9660.85,-1,-2,-3,-4,-3,-1,1,-1
9660.85,2,0,1,-7,1,-1,0,0
9673.529,0,1,-1,0,0,0,-2,-1
9673.529,-1,2,-1,-5,-4,-1,0,0
9674.674,-2,-3,-1,5,0,1,0,0
9674.674,1,-1,-1,-6,-1,0,-1,-2
9696.48,0,1,-4,2,1,-1,-1,1
9696.48,1,-2,2,2,4,0,-1,0
9704.075,2,0,-1,3,-1,-1,-2,0
9704.075,-2,2,-5,-16,-2,-1,1,0
9710.713,-1,2,-2,-9,-3,0,-1,1
9710.713,-1,1,-6,-2,-1,-1,0,1
9718.901,0,-1,1,4,1,2,1,1
9718.901,-2,-4,-5,2,2,-1,0,0
9734.398,2,-2,4,11,3,0,2,0
9734.398,0,0,-2,-3,2,1,1,-1
9734.398,-2,-15,8,-10,2,1,2,0
9734.398,1,2,0,1,-1,-1,-2,1
9764.982,0,-1,1,-2,-1,3,0,1
9764.982,0,2,-1,8,1,0,-2,0
9764.982,0,3,-3,-1,-2,-2,-1,-2
9764.982,0,-2,4,0,2,0,-1,0
9779.06,-3,-1,1,8,1,-1,1,-1
9779.06,1,-2,-2,-9,-2,-3,-1,0
9780.057,0,2,-1,7,-2,0,-1,0
9780.057,1,2,-1,-23,-3,-2,-2,1
9793.821,0,1,-4,3,-2,-1,0,0
9793.821,1,-3,0,1,0,0,1,0
9794.856,1,2,-4,-2,-1,-1,-1,-1
9794.856,-1,0,-2,8,0,1,-2,-4
9816.921,0,-1,2,9,1,1,2,0
9816.921,-3,0,-3,-22,-2,-2,0,0
9816.921,0,-4,-1,3,0,-1,0,0
9816.921,-1,-1,4,5,0,1,1,1
9831.341,-2,-1,-5,-6,1,-1,0,-1
9831.341,-1,1,-1,2,-1,-1,-1,-1
9839.526,1,1,1,8,-1,0,-2,0
9839.526,-2,-1,-1,-34,-2,0,1,-2
9854.818,0,0,1,7,2,-1,-1,-1
9854.818,-1,-7,7,15,3,-1,1,1
9854.818,0,4,-1,-10,0,-2,-1,0
9854.818,-1,1,5,39,4,1,1,-1
9876.576,-2,-2,0,25,6,3,1,-1
9876.576,-2,-1,-12,-19,-11,-3,-3,-1
9877.581,-2,-5,-6,-55,-8,-2,-3,-2
9877.581,0,3,9,18,2,0,-2,0
9890.764,1,3,9,76,7,0,-1,1
9890.764,-1,-2,-17,-17,-4,0,0,-1
9898.851,-2,-3,5,-67,-6,-1,-2,-2
9898.851,2,12,-12,-5,-6,-3,-2,0
9914.034,-1,3,5,5,1,1,0,1
9914.034,2,2,5,29,3,0,0,1
9915.03,1,0,0,18,3,2,-2,-2
9915.03,1,6,-1,-17,-3,-2,-2,-2
9937.012,0,0,-4,-28,-1,-3,0,-2
9937.012,-1,1,3,2,1,3,0,2
9937.012,1,9,-14,6,0,-2,-1,-1
9937.012,-2,-17,9,13,4,2,1,0
9959.417,2,-2,-6,-20,-6,-3,-1,-2
9959.417,-2,1,4,-10,2,0,0,0
9960.767,4,8,-2,49,2,1,-1,-2
9960.767,-3,-5,5,-34,-1,2,0,0
9974.524,0,-3,-1,-23,-5,-2,-1,0
9974.524,0,0,-1,-9,0,-1,-1,1
9974.524,1,3,4,33,2,2,1,1
9974.524,-1,-9,-5,-17,0,-1,1,0
9996.58,0,4,-4,-21,-3,-3,-1,1
9996.58,0,4,2,12,0,2,1,-2
9997.587,0,-1,2,-6,0,0,0,1
9997.587,0,1,-4,-19,-3,0,2,0
10020.126,-2,-2,-3,-2,-3,-1,0,0
10020.126,0,-1,-5,18,3,-1,-1,-1
10020.126,-2,-9,9,9,4,1,2,0
10020.126,0,6,-6,21,1,0,-1,-1
10034.527,0,-1,-4,-12,-3,-2,-2,0
10034.527,-1,2,-2,-1,-2,1,0,-3
10034.527,0,-1,6,-9,0,0,0,-1
10034.527,0,2,1,17,-1,0,0,-1
10057.12,-1,-1,-2,0,1,1,-1,2
10057.12,-1,-5,12,5,1,0,1,0
10057.12,-1,3,-8,-8,-1,-2,-2,0
10057.12,-3,-25,11,11,1,2,3,1
10079.878,-1,-1,-5,-9,-1,0,0,-3
10079.878,1,0,1,-7,2,0,1,0
10080.875,-1,-8,9,10,-2,0,1,1
10080.875,1,6,-5,1,0,-1,-1,0
10094.276,-1,0,4,7,0,0,-1,-1
10094.276,-2,2,-5,-10,-4,-3,-4,-2
10095.304,2,4,3,-3,-3,-1,-4,0
10095.304,-1,7,-10,-7,-5,-1,-1,-3
10116.888,1,-2,2,-5,2,0,0,1
10116.888,1,3,-3,26,2,0,1,0
10117.892,-1,-3,-5,-54,-3,-2,-3,-1
10117.892,-2,1,-2,0,0,0,0,-1
10139.373,0,-1,0,-3,0,-2,1,-1
10139.373,0,-1,3,18,-1,0,0,1
10140.369,-4,-6,3,-7,2,2,3,0
10140.369,1,2,-3,2,1,-1,-1,1
10154.524,-3,1,-4,-8,-1,-3,0,-2
10154.524,2,1,2,-13,1,-2,-1,0
10154.524,1,2,-3,9,-3,1,0,-3
10154.524,-1,1,3,8,0,-1,-1,1
10175.833,0,-6,7,10,3,1,-1,-1
10175.833,-2,-3,-1,19,3,-2,-1,0
10177.244,2,-11,6,0,-2,0,0,-1
10177.244,0,3,-7,-66,-14,3,0,-2
10198.887,-1,-8,-5,-11,-2,-1,1,-1
10198.887,1,0,11,5,2,1,0,-1
10206.442,-2,7,6,18,5,-1,0,-2
10206.442,1,-2,-1,98,11,-3,-2,0
10213.929,0,-1,-6,-94,-5,-1,0,0
10213.929,0,3,-2,-24,-3,-2,-2,-2
10214.996,0,4,4,30,-1,0,0,-2
10214.996,0,0,2,2,2,-2,-1,2
10236.732,1,5,-2,53,7,3,1,2
10236.732,1,-7,-6,-5,-11,-5,-3,0
10237.727,-4,3,-12,-88,-8,-2,-3,-1
10237.727,-8,-6,6,29,3,-3,1,-4
10259.343,0,6,0,-6,0,1,1,1
10259.343,6,1,9,11,6,3,2,2
10260.34,7,-3,6,51,5,2,0,2
10260.34,-1,1,-5,2,2,2,0,-1
10282.114,-8,-19,-8,9,-9,-7,-6,-3
10282.114,-7,1,-7,-47,-23,-3,-2,-3
10283.135,3,3,-4,30,-2,1,1,0
10283.135,6,6,7,1,7,4,2,3
10296.519,5,5,2,22,7,0,-1,1
10296.519,1,-4,-5,-3,16,0,1,0
10297.587,-2,-7,5,-18,-4,-1,-2,0
10297.587,0,-1,-2,-28,-8,1,0,0
10319.683,0,2,5,30,3,2,2,2
10319.683,0,1,0,66,8,-1,-2,0
10320.692,-2,-2,-16,-79,-11,-3,-1,-1
10320.692,1,2,2,1,0,-3,-1,1
10334.331,1,-4,17,0,5,3,0,0
10334.331,6,-1,0,84,2,5,2,1
10335.342,0,-2,-21,-73,-15,-1,-6,0
10335.342,0,2,8,28,1,0,-1,-3
10356.944,-1,4,3,30,2,1,2,0
10356.944,-3,-3,-16,-57,-6,-4,-2,-3
10356.944,-6,-8,13,95,-1,-5,-1,-2
10356.944,3,4,-13,-115,-8,-2,-1,1
10380.382,-3,-1,3,1,0,4,2,0
10380.382,4,8,12,14,4,2,1,3
10380.382,3,-1,0,28,18,2,1,1
10380.382,5,1,1,8,1,-1,0,0
10393.674,-1,-6,1,15,-1,-2,0,-1
10393.674,-7,1,-2,30,-11,-1,-3,-1
10394.672,-9,-9,-12,-88,-10,-5,-2,-5
10394.672,-1,1,8,44,2,-2,2,1
10417.063,8,2,-6,-6,3,1,1,3
10417.063,0,-15,-1,11,-5,-3,-6,-3
10417.063,-10,19,14,38,4,0,0,-1
10417.063,-3,-9,2,27,19,4,3,1
10439.586,0,-7,-13,-31,-13,-2,-1,-1
10439.586,-4,16,8,27,-4,0,1,1
10440.593,18,17,6,44,2,4,1,2
10440.593,8,0,2,-25,-1,-1,-4,3
10453.92,-15,-10,3,107,4,2,2,-3
10453.92,6,17,-10,-32,9,0,2,6
10454.931,-7,-14,0,50,7,2,-2,-3
10454.931,-9,-32,5,0,-23,-7,-3,0
10476.312,-1,22,-29,7,-10,-4,-2,-7
10476.312,21,-9,-14,-41,9,2,-2,-7
10477.324,5,19,1,-27,-10,0,0,-9
10477.324,0,11,4,101,-4,1,7,59
10499.941,-8,7,14,-55,-2,0,-1,-79
10499.941,16,1,-3,1,1,-3,0,26
10500.938,-25,-17,-17,-36,-2,-4,6,-14
10500.938,-25,17,-13,14,6,1,-10,-9
10513.749,9,-48,-7,-33,-6,0,9,47
10513.749,17,63,31,26,11,4,0,3
10514.783,-27,-65,8,115,18,1,-8,-45
10514.783,-10,-3,-15,31,-8,-5,6,5
10535.992,61,17,-15,21,-4,-6,-5,26
10535.992,-58,-37,-10,-47,-24,-2,-1,-33
10537.208,23,11,1,24,-13,-7,-18,-28
10537.208,-62,-33,-2,2,3,4,5,-11
10560.286,30,114,44,84,12,11,13,10
10560.286,77,-88,-5,45,3,2,-1,33
10560.286,-80,-44,-22,-49,-36,-10,-11,-14
10560.286,7,10,-23,-18,3,0,1,-17
10573.624,-49,6,15,3,3,3,3,29
10573.624,-9,95,14,-64,21,2,17,-25
10581.6,119,95,8,22,-8,2,-6,42
10581.6,21,36,28,29,3,0,-5,-3
10596.588,-14,-94,-66,-128,-83,-13,-18,12
10596.588,-98,33,31,127,7,2,-8,-9
10597.584,-38,71,63,91,66,10,27,-46
10597.584,120,-17,8,52,42,5,6,47
10619.615,-106,10,-76,-37,-35,-7,-17,-46
10619.615,32,2,32,14,-17,-1,-1,-23
10620.636,-6,88,-6,-92,-2,5,12,48
10620.636,60,-27,29,-9,40,-10,2,-11
10633.587,101,69,43,113,53,-12,9,25
10633.587,39,-128,-39,-1,33,39,-17,6
10642.071,-19,-32,-39,-43,-40,-27,-16,-26
10642.071,-59,30,-26,65,2,-30,4,-10
10656.737,55,70,-17,-38,47,33,-2,2
10656.737,-29,-21,64,49,-21,-18,3,2
10657.745,49,29,61,127,107,-3,11,49
10657.745,14,-128,-95,-128,-121,10,-23,-7
10680.308,-83,66,55,40,28,-21,1,-53
10680.308,111,117,-43,40,9,2,23,48
10680.308,-105,-49,-48,-49,-76,14,-14,15
10680.308,-47,33,41,-47,54,-37,-14,-62
10693.341,10,-17,-4,11,35,23,13,30
10693.341,6,-11,-26,-63,-63,4,0,26
10701.954,89,-27,-19,91,10,-12,-3,39
10701.954,-26,126,-21,-80,-82,3,0,2
10716.285,-5,-78,23,-35,58,12,6,-5
10716.285,-67,104,-18,47,75,-32,-10,-51
10717.304,93,-114,5,-66,10,58,13,51
10717.304,-70,53,24,117,-11,9,-4,-22
10739.891,-27,-90,-2,-32,-87,-4,-2,-8
10739.891,58,49,-12,-17,-78,-40,20,50
10740.913,-59,62,40,26,101,36,6,-4
10740.913,13,-94,48,59,9,33,2,20
10753.254,40,66,-67,-111,40,-37,-43,-66
10753.254,-83,-68,12,-64,-19,23,4,-25
10761.627,-3,112,-3,5,-128,-36,7,-1
10761.627,100,24,-48,17,54,-3,9,41
10776.856,-78,-48,35,108,25,8,1,3
10776.856,13,37,45,-11,40,12,16,-10
10776.856,27,39,6,-56,-17,-11,-18,-51
10776.856,-80,-68,33,42,-18,-14,-15,-34
10799.65,-29,74,32,39,-121,-18,14,-13
10799.65,68,-32,-28,-7,122,42,7,50
10800.645,-116,-103,-28,-122,-104,-6,-60,-98
10800.645,24,42,-28,87,31,-3,27,51
10813.195,-14,18,-8,88,-105,6,8,-8
10813.195,18,51,-1,-16,36,-26,-23,-10
10821.788,18,-9,7,3,59,31,29,35
10821.788,-6,35,17,-27,-23,18,5,36
10837.176,30,-94,-40,-35,2,-28,-22,-39
10837.176,-78,-17,-13,-17,-102,-25,-19,45
10837.176,40,18,21,26,-3,-3,19,-80
10837.176,7,50,-49,1,71,-25,-17,28
10859.693,-34,79,16,-66,35,30,24,20
10859.693,-14,-25,17,26,-32,-26,-16,-46
10860.703,6,-20,-14,21,31,36,12,87
10860.703,-35,-66,61,82,-65,-1,-4,-47
10890.214,66,18,-21,4,41,-3,6,36
10890.214,-77,-29,-86,-28,-28,7,-39,-65
10890.214,20,71,-28,-11,92,-37,33,75
10890.214,-54,38,-88,-125,-32,26,-26,-70
10896.657,-66,-54,48,79,0,-6,-19,-9
10896.657,49,-10,35,96,-35,10,49,64
10896.657,-6,86,-36,86,23,-17,-31,-64
10896.657,43,-65,-1,-117,-125,4,-8,120
10919.527,-53,-61,-41,-30,-17,-14,-26,-100
10919.527,-83,58,36,-54,7,30,37,59
10920.539,105,-27,6,41,-46,-30,13,66
10920.539,-41,35,25,109,13,-19,-18,-35
10942.309,-43,-27,-61,-126,20,36,12,48
10942.309,1,-73,32,8,-60,-43,-2,-51
10943.307,53,89,27,-50,57,46,5,25
10943.307,-79,-74,61,82,4,8,4,-52
10957.07,83,-3,-16,88,6,-1,-8,39
10957.07,14,47,-27,-19,6,5,-15,-34
10957.07,-27,-24,11,37,-41,-19,-3,-42
10957.07,65,-3,14,-8,79,4,11,-3
10979.335,-58,35,74,54,-44,1,-1,-2
10979.335,62,47,7,10,51,-1,7,49
10980.37,-60,-70,11,-8,-42,16,7,48
10980.37,88,126,49,25,26,-3,30,-17
11002.568,55,-112,-51,70,-33,-27,-13,24
11002.568,-78,-5,-71,-125,-43,45,-24,-38
11003.577,-39,8,43,52,-27,-11,13,-26
11003.577,-35,65,-37,66,-33,2,29,21
11016.471,127,48,64,78,43,-5,13,78
11016.471,-48,35,-9,-31,-45,-13,-18,-24
11017.538,-27,-19,-1,11,3,0,13,-7
11017.538,77,56,-7,-42,-54,-3,3,18
11040.065,-63,-39,7,47,116,10,6,-15
11040.065,42,-20,27,13,-49,3,1,8
11041.075,-8,94,-40,-104,-48,-26,-6,25
11041.075,10,-106,30,10,27,18,12,26
11062.732,25,43,41,109,-96,-56,4,-26
11062.732,78,-19,-77,-32,127,36,-42,-22
11062.732,-53,60,43,-64,-93,-27,-18,-27
11062.732,16,-16,28,71,-12,-5,-4,28
11076.381,-9,108,1,-45,-39,18,19,1
11076.381,-51,-70,45,68,-27,-36,6,6
11077.844,112,-128,-67,-66,11,-14,-15,-14
11077.844,-105,56,-55,-66,7,9,-12,6
11099.426,36,-14,13,-33,70,-4,4,-41
11099.426,-47,-4,17,-9,-22,-7,-21,-54
11100.507,-7,104,48,127,39,28,31,69
11100.507,25,-83,-48,-3,53,-11,-19,-98
11122.372,-33,-35,-27,-58,-76,6,3,-14
11122.372,38,24,47,12,-12,-17,28,30
11122.372,6,-100,-64,-66,87,31,-24,-2
11122.372,-51,108,37,88,-48,-9,8,-14
11136.301,21,121,14,-57,-19,15,16,46
11136.301,-11,-21,-73,127,49,3,5,11
11145.199,4,-1,38,-10,-109,-19,4,33
11145.199,46,-16,-12,-14,116,42,25,-32
11159.471,-66,-95,-42,-35,-37,-20,-36,-48
11159.471,-77,20,75,69,-42,8,23,-45
11166.392,93,68,-2,127,58,12,47,95
11166.392,-97,-19,-84,-111,-65,-20,-76,-109
11182.115,-41,105,20,7,-16,7,4,6
11182.115,34,69,19,67,-74,-17,27,85
11184.109,55,52,9,-9,14,22,-17,-37
11184.109,-42,-23,39,-15,-108,5,16,47
11195.889,15,46,-33,-69,-8,5,15,39
11195.889,55,-22,2,-26,-8,-9,2,47
11204.502,-121,-65,18,108,13,-17,-53,-120
11204.502,49,75,39,-61,67,-7,31,127
11219.634,14,16,4,-68,-28,-7,-21,-8
11219.634,2,-57,-23,-30,7,14,-4,-8
11221.631,-5,82,58,48,7,-4,8,2
11221.631,61,-91,-51,19,42,-33,-42,-37
11243.189,-51,-3,15,22,72,11,4,-18
11243.189,87,63,50,-15,-12,1,2,-9
11244.219,-123,-103,-35,-49,42,-9,-5,9
11244.219,60,127,0,-31,-78,-17,10,43
11256.356,6,-75,-47,-43,-12,19,-11,-9
11256.356,-22,73,-25,-10,-11,-10,-4,33
11265.418,-59,-73,8,30,-119,-22,-26,-88
11265.418,52,85,19,66,110,26,62,107
11279.982,-83,-41,38,35,-34,13,-16,-36
11279.982,-19,35,13,-11,3,-4,-17,-38
11281.011,6,-2,-14,22,-44,38,20,12
11281.011,-22,-17,-18,-27,-121,-52,-6,-34
11302.767,-8,9,-20,-62,104,43,15,41
11302.767,73,62,-15,-23,6,29,-4,-17
11303.787,-87,16,-24,39,-30,-24,-17,-31
11303.787,-10,13,-19,19,-25,-9,-8,-49
11316.091,52,-54,42,57,-22,16,26,16
11316.091,-32,33,-21,-58,-28,-12,13,66
11324.89,32,-117,0,-74,45,4,-26,-25
11324.89,-8,83,49,51,-105,-7,3,-87
11340.337,-44,-84,-4,48,53,15,-11,3
11340.337,11,-128,-13,-41,8,24,15,44
11341.709,8,75,7,-54,-67,-18,6,-37
11341.709,-67,60,65,32,-13,19,16,35
11362.435,127,-47,23,17,11,-12,7,88
11362.435,-99,-49,38,48,13,-3,-36,-109
11368.426,-26,69,-119,-61,27,0,11,37
11368.426,42,75,38,59,-36,10,25,80
11376.033,24,46,9,24,-7,-45,-30,-94
11376.033,-53,-103,-34,-67,98,59,8,3
11384.65,-35,68,-19,-48,-28,-19,-11,-6
11384.65,-12,-37,50,33,-9,9,8,-26
11399.892,97,120,-13,49,-55,0,32,127
11399.892,-93,36,34,105,9,-11,-40,-96
11400.905,65,74,82,84,83,34,36,46
11400.905,-29,-89,-91,-89,-39,-18,-41,-29
11422.513,-39,117,19,101,76,-8,9,8
11422.513,57,64,41,7,-24,-2,23,6
11423.544,2,27,42,74,-48,-7,-23,5
11423.544,67,64,-67,-71,55,-2,-21,-51
11436.304,-1,-111,13,-3,-44,-24,33,69
11436.304,24,-72,4,-53,16,12,-18,0
11445.063,-45,71,5,-80,-2,-19,1,-11
11445.063,35,-120,36,11,-33,6,-3,37
11459.969,-101,12,-3,-35,-106,-23,-20,-87
11459.969,127,127,-38,-66,89,40,52,106
11460.997,9,-128,-55,16,-58,-4,-28,-30
11460.997,-55,-28,-37,-30,8,4,-4,-10
11482.628,11,-16,14,-7,-109,-11,-11,37
11482.628,-75,50,30,99,3,-13,0,-67
11483.718,12,37,21,-71,24,2,4,-17
11483.718,36,9,-11,-65,34,9,0,2
11504.421,4,127,37,118,-12,-11,9,37
11504.421,38,55,-10,-13,-2,-1,-10,0
11506.633,9,-128,6,48,1,-19,-18,52
11506.633,-98,-41,23,-26,3,8,-4,-57
11519.618,-41,127,-12,-71,43,26,16,-22
11519.618,78,1,-6,31,-31,-31,13,99
11521.611,3,13,78,68,7,16,-15,-83
11521.611,-44,24,-33,-76,-7,8,12,101
11542.771,2,60,80,38,36,-28,1,-128
11542.771,44,-85,-18,-42,53,41,0,25
11543.811,-42,36,-74,-66,-102,-19,-18,-11
11543.811,31,67,44,3,-54,-10,7,25
11556.141,-23,106,2,49,51,4,40,32
11556.141,104,-39,-8,-23,-34,6,-30,0
11564.973,-71,61,-45,105,35,8,25,-72
11564.973,-29,18,7,32,-16,-4,-5,17
11579.87,28,14,-19,21,15,4,-5,27
11579.87,-1,-86,-26,11,-70,-40,2,26
11580.884,-5,-25,-66,-21,18,6,-14,19
11580.884,-13,-23,-1,42,22,14,20,14
11602.184,58,13,-15,8,31,19,-3,-40
11602.184,-53,127,52,38,-59,-21,-11,-12
11604.194,35,-46,66,71,70,10,30,44
11604.194,1,-57,-46,-16,46,11,-15,-15
11616.364,-15,28,30,22,-43,0,-4,6
11616.364,-108,20,-36,-128,-47,12,-7,-50
11625.186,127,127,71,-20,-26,-38,-21,-23
11625.186,-32,-108,-49,60,19,9,15,20
11654.267,-40,-128,-50,-27,-39,11,-31,-20
11654.267,-85,63,-4,73,-61,-35,-1,-65
11656.448,46,66,48,11,77,29,59,125
11656.448,54,-60,29,34,9,-7,-48,-30
11670.064,2,-23,-87,-50,-9,-2,2,-6
11670.064,15,-82,-21,28,-37,-21,-18,-14
11671.055,-60,-26,14,-70,-3,14,27,35
11671.055,126,127,0,-20,24,-7,-12,15
11675.698,-92,79,54,12,65,7,0,-23
11675.698,38,-85,-27,-42,17,14,22,57
11684.449,4,39,-38,-4,-31,-13,-19,-29
11684.449,-69,110,60,-29,-41,20,-3,6
11699.795,127,8,-12,13,96,-3,17,26
11699.795,-37,-9,48,72,-90,-22,-5,-24
11706.037,-20,-43,-37,-1,85,31,1,9
11706.037,-20,12,52,44,-13,-17,14,32
11721.904,-11,100,4,50,-6,2,-31,-23
11721.904,17,-47,-7,-93,-36,0,11,17
11724.443,-45,-110,-44,56,-59,-25,-18,-11
11724.443,44,97,49,43,61,17,28,-21
11736.384,-104,-81,-17,9,-34,-1,-53,-88
11736.384,23,127,17,24,26,10,22,46
11744.994,59,33,32,20,-5,5,34,102
11744.994,4,-120,-22,-10,9,-6,-12,-78
11759.082,-18,-38,-30,-40,-63,0,1,16
11759.082,-43,88,61,34,0,-15,12,44
11760.555,45,-35,-25,-56,84,15,-10,-41
11760.555,-96,127,-26,-61,-59,-14,-44,-49
11781.948,50,60,10,-32,-85,-6,19,65
11781.948,13,90,24,38,9,-32,-29,-72
11784.11,33,-20,-13,45,5,15,13,63
11784.11,18,18,9,39,27,24,23,23
11796.026,-3,-76,42,-97,-28,-14,-24,-30
11796.026,-21,7,-64,71,-80,-26,30,26
11805.411,-88,-98,28,31,33,11,-73,-91
11805.411,22,29,-29,-56,-33,-7,3,-52
11820.195,4,-89,9,13,-27,18,29,84
11820.195,49,94,17,-10,11,5,-2,33
11821.208,46,86,16,76,-25,-11,14,14
11821.208,-36,-105,-35,26,9,2,-11,-47
11841.904,-64,46,-1,-70,27,-3,-14,61
11841.904,-17,-95,-1,-32,32,8,16,-94
11844.057,50,110,26,22,7,6,39,54
11844.057,-38,-78,-47,-96,46,2,-42,-31
11865.11,11,97,11,45,-37,-16,16,-6
11865.11,70,30,-15,-50,58,21,-9,20
11866.143,-90,88,14,-119,-90,-21,-13,-20
11866.143,85,-97,38,69,10,3,35,29
11880.087,-29,30,-51,-8,-45,2,-17,-21
11880.087,-84,51,-12,29,34,20,-13,-31
11881.1,65,47,15,-31,-35,-10,34,62
11881.1,58,-47,30,114,80,-17,-20,57
11901.726,-46,-47,-45,-81,-30,-2,-35,-107
11901.726,-7,8,10,77,19,11,10,64
11910.189,36,53,-21,-66,-94,-19,1,29
11910.189,-35,-98,1,56,11,-11,-15,-41
11925.311,28,102,37,123,55,10,22,10
11925.311,-9,-27,-21,-113,-38,7,-6,62
11926.308,47,60,-20,11,-19,-3,-4,-39
11926.308,-30,127,10,0,-63,5,13,-60
11939.778,67,-96,-47,-16,61,-7,-12,42
11939.778,-57,49,-3,17,-14,-18,-16,-38
11941.771,-21,76,17,-79,-18,12,5,-33
11941.771,65,116,45,30,-6,14,51,127
11962.644,29,-117,-21,-14,-52,-49,-73,-65
11962.644,-60,-77,-86,-13,116,15,6,-85
11963.64,-57,31,29,-37,-28,-2,-31,-29
11963.64,37,126,36,32,-69,-17,21,5
11984.37,33,-40,30,-5,106,35,40,73
11984.37,15,-100,7,6,-52,-16,-40,-20
11986.447,-17,-62,-30,-67,-7,-13,1,-27
11986.447,-65,-87,-13,-22,-61,-8,11,32
12006.937,24,100,-3,112,63,7,1,38
12006.937,-14,-32,13,-13,-37,3,5,-30
12008.506,-12,-111,-40,36,29,14,10,4
12008.506,13,84,38,29,-49,-1,26,-7
12022.782,-77,-32,-8,-61,34,-8,-46,-73
12022.782,83,-25,20,10,17,8,15,86
12024.06,-15,51,-7,47,-19,-1,-13,-60
12024.06,-4,52,4,-33,54,15,21,52
12044.353,39,125,41,19,-88,-5,17,43
12044.353,4,-4,18,39,38,1,-26,-67
12046.419,2,-19,35,15,-52,-17,2,63
12046.419,3,61,-40,23,112,24,8,17
12059.577,11,36,-11,11,-53,-12,-2,-41
12059.577,29,-26,-8,-6,-69,-28,-26,20
12065.625,-37,-100,37,127,68,2,13,-36
12065.625,-18,-68,-25,-96,-13,32,-15,-13
12083.176,20,8,-38,-106,-100,-22,40,108
12083.176,-22,81,53,26,62,12,-38,-86
12084.385,23,6,-34,-5,-31,-15,-4,49
12084.385,-29,-15,-9,67,-7,-18,-16,7
12105.184,-55,39,75,107,51,19,58,59
12105.184,97,-43,-49,-89,-42,5,-44,-34
12106.195,-50,62,6,16,-3,0,-12,-90
12106.195,-2,56,17,28,-25,-3,17,14
12119.566,38,-39,51,83,39,10,20,40
12119.566,-23,-45,-63,-17,28,0,-9,-23
12125.462,8,55,-3,-56,-17,2,-11,5
12125.462,-10,11,-38,-128,0,0,-16,-20
12149.518,-44,37,-20,-57,-92,-12,2,-79
12149.518,102,127,63,127,112,-1,61,127
12151.573,-61,-128,-76,-89,-88,25,-33,-8
12151.573,-65,127,-10,-69,-83,-19,-12,-57
12164.778,47,98,-8,-111,-25,9,-7,55
12164.778,-39,48,17,58,0,-22,16,-100
12166.826,-40,127,73,104,-34,4,22,5
12166.826,117,-121,-74,32,127,14,-23,35
12179.403,-95,-95,8,-49,-68,-10,-25,-77
12179.403,-8,105,40,14,-33,12,38,54
12185.931,99,-56,104,84,50,4,18,43
12185.931,-38,-22,-58,36,-36,-22,-25,-38
12202.18,21,37,32,-79,15,3,-10,-19
12202.18,-22,44,42,-2,-20,8,9,55
12204.147,-25,-57,-62,13,-45,-18,4,-36
12204.147,30,29,23,86,103,1,3,47
12225.256,4,52,-14,-8,-23,22,-6,-28
12225.256,-80,-76,-59,-25,-54,0,3,26
12226.272,93,98,4,-86,74,-6,2,29
12226.272,-34,-128,47,24,-116,-9,0,-16
12239.023,4,64,-44,68,41,-2,6,-3
12239.023,51,-88,61,76,124,14,-9,27
12245.531,-65,46,14,-10,-21,-8,-12,-38
12245.531,-11,26,-53,-64,-68,-21,-10,-27
12262.598,54,63,127,-18,-11,7,16,23
12262.598,-20,-59,-4,45,-63,-15,-2,25
12263.614,-11,36,43,76,61,19,-2,-11
12263.614,90,97,35,22,-15,-22,31,2
12284.924,-52,-100,-26,1,71,24,-53,-108
12284.924,-9,127,-26,-41,-42,-2,-4,-7
12285.939,10,44,-6,-44,7,3,11,44
12285.939,-8,69,43,26,-20,14,38,49
12298.592,45,-105,-82,80,33,-25,-16,24
12298.592,-16,43,-42,-52,-54,15,-8,-51
12306.187,-24,-57,-31,91,86,9,7,16
12306.187,-17,47,20,-120,-39,-10,-25,-13
12322.485,36,-16,-32,96,-6,3,24,0
12322.485,-23,8,59,-35,-26,-4,-3,18
12323.517,29,-16,-19,-41,-99,-15,15,49
12323.517,-49,26,-9,-8,127,16,-42,-57
12345.068,-6,105,59,33,-27,4,3,-10
12345.068,44,96,40,48,-97,-2,31,68
12346.114,71,-5,-29,61,109,9,10,-11
12346.114,-102,-7,-69,12,-53,-21,-32,-21
12358.156,6,79,6,-128,-49,2,15,31
12358.156,3,86,26,10,23,6,2,5
12367.096,10,-22,23,-5,-5,5,11,14
12367.096,14,-68,-22,110,-36,-13,-1,-27
12382.12,-12,-91,-5,65,105,48,12,49
12382.12,-24,41,-28,-18,-39,-7,-1,-36
12384.28,30,-86,-65,-47,-28,-14,-8,-4
12384.28,-23,12,0,67,-5,2,-9,-8
12404.182,-43,75,-16,-64,-7,-5,4,0
12404.182,42,56,18,31,32,-31,24,53
12410.798,29,-55,-59,-128,-41,29,-80,-94
12410.798,-13,51,78,67,-6,4,21,37
12418.517,23,59,21,118,8,-9,2,-52
12418.517,0,-72,-32,27,0,-1,8,-21
12427.733,-84,0,-14,31,2,-20,10,72
12427.733,81,-58,-23,1,-41,0,-1,-22
12442.247,-25,-67,-69,-96,44,13,-15,21
12442.247,-28,111,54,6,-7,11,-10,-46
12444.262,15,-37,-21,90,-7,-5,19,41
12444.262,-18,-31,-18,4,9,12,2,-26
12465.208,-27,15,33,32,-24,-28,5,24
12465.208,86,48,-32,-61,101,22,8,24
12466.723,-114,-39,0,-30,-17,5,-17,-50
12466.723,-15,115,7,-57,3,-8,-6,-1
12487.446,1,84,14,22,-98,-10,26,-13
12487.446,65,-97,-20,-8,105,28,25,84
12488.917,-73,127,-2,-27,-104,-14,-57,-104
12488.917,12,42,52,-106,-18,4,16,34
12502.806,-16,49,-39,-74,-30,-5,4,43
12502.806,36,12,27,127,-25,-5,9,-2
12503.932,-4,14,0,2,12,-2,7,-3
12503.932,-16,1,-54,34,18,-8,-6,1
12524.379,47,41,-11,-32,-54,24,37,36
12524.379,-24,-96,-52,-9,35,-6,-62,-3
12526.372,-5,118,38,-39,-7,2,17,-33
12526.372,20,39,-18,-95,-26,-3,-4,60
12537.994,-7,-12,16,85,72,-10,5,-59
12537.994,-13,-32,-52,-23,-79,1,-11,32
12555.222,23,-25,29,13,2,-3,-2,-53
12555.222,-41,15,-15,-12,35,13,21,11
12562.436,110,56,30,78,-52,-19,20,82
12562.436,-66,-109,-32,-84,50,34,-34,-72
12563.448,-58,83,-37,51,19,-9,-4,32
12563.448,45,89,74,40,-27,8,10,-13
12584.775,18,-41,8,-21,14,-1,7,-9
12584.775,-37,42,-17,-3,-49,-28,-14,-26
12585.784,57,50,42,-70,3,7,17,59
12585.784,-14,-106,-14,-4,23,12,6,1
12598.95,54,124,-7,42,3,-10,-4,62
12598.95,-96,-80,57,26,14,-1,-33,-112
12622.448,16,48,-13,45,15,12,22,-1
12622.448,6,16,-22,-44,-27,-14,-2,78
12623.499,-62,-30,48,4,-33,-3,-9,-121
12623.499,98,84,-11,22,79,12,53,116
12625.505,-59,-99,-25,-9,-90,-13,-65,-77
12625.505,-17,37,-33,-41,-39,-2,6,-11
12645.144,-1,30,-29,-17,-47,-5,-8,-9
12645.144,-38,-51,51,85,-13,-16,-2,-39
12646.176,-1,8,13,86,54,0,13,59
12646.176,31,23,3,50,37,6,-2,-39
12658.301,7,32,11,-88,24,-11,-24,26
12658.301,-27,-22,-4,-85,-22,35,17,-16
12667.776,97,99,48,30,6,0,27,93
12667.776,-114,-128,9,98,64,-3,-32,-95
12690.261,61,53,-92,-27,-35,-9,-9,41
12690.261,-60,-56,7,-3,-81,-26,-1,-40
12691.673,25,35,34,43,-24,17,18,-25
12691.673,22,8,-6,40,92,22,22,37
12704.429,23,-70,7,18,-40,-12,-14,5
12704.429,53,31,-37,-19,-2,7,-15,9
12706.665,-82,-123,-19,-50,14,-5,15,-25
12706.665,35,31,4,5,-90,-32,-13,-14
12718.65,-27,23,-3,-18,91,29,18,2
12718.65,14,-44,-70,-31,-121,-24,-22,6
12727.252,-4,67,36,-62,86,4,11,5
12727.252,4,80,0,50,-58,23,10,57
12742.243,33,-106,-3,54,-14,-19,-14,-21
12742.243,-13,77,50,56,2,6,17,-14
12743.24,88,-36,-71,-63,34,9,-1,39
12743.24,-59,-81,-24,-94,-19,-4,-8,4
12764.779,-42,39,35,6,-14,-2,-29,-27
12764.779,9,80,39,52,-16,-13,17,20
12766.84,24,1,-20,21,-97,-37,-48,-80
12766.84,4,-37,59,62,82,13,5,-20
12787.538,-12,-98,-5,-41,43,37,1,77
12787.538,-81,-5,-5,-124,-7,-13,-15,-104
12788.534,22,103,4,-48,-23,-1,31,78
12788.534,67,-87,15,1,-28,-7,0,29
12802.673,-62,77,29,36,91,1,-3,-61
12802.673,38,29,-2,-42,12,7,6,81
12803.781,-58,-121,-54,-2,-18,0,-1,-35
12803.781,10,127,4,31,-5,-18,-28,-31
12832.721,-50,7,33,44,-35,19,23,-46
12832.721,15,-41,-30,-48,19,-18,-17,9
12833.779,-64,-37,-24,-2,46,7,5,31
12833.779,-4,63,40,-15,-58,-6,-25,-57
12846.809,59,71,24,102,71,-16,21,65
12846.809,-2,-23,-51,-31,-40,20,-22,-28
12848.802,32,15,46,1,-26,8,10,7
12848.802,10,9,-37,18,16,1,16,49
12862.498,-15,-25,-17,-51,-95,-3,-6,-43
12862.498,36,26,47,26,65,-33,-4,-8
12863.508,17,69,40,86,44,17,-2,29
12863.508,-15,12,-5,20,-22,15,15,-32
12885.053,-1,-54,-50,-109,-56,-14,6,14
12885.053,0,-24,-3,87,35,5,-5,3
12886.114,4,87,16,-52,-52,14,2,-32
12886.114,21,109,49,15,-36,-21,5,28
12907.38,33,-105,-37,9,45,36,16,29
12907.38,-10,-5,-32,-88,-19,-23,-18,38
12908.387,-7,65,26,43,-27,-3,10,-68
12908.387,85,-6,-45,-79,52,5,18,64
12922.092,-109,-52,1,97,-54,-12,-10,-73
12922.092,102,122,-33,-24,-15,10,0,7
12928.782,-23,-85,1,45,-2,1,-5,21
12928.782,-38,26,2,1,-3,-4,14,-1
12945.029,4,-14,39,14,-20,7,-21,-22
12945.029,-50,-31,29,67,6,3,9,-16
12946.038,73,78,-58,45,89,7,17,29
12946.038,-89,-52,-26,-122,-90,-15,-43,-55
12968.094,24,102,2,36,15,-4,5,45
12968.094,-37,55,42,47,-56,0,2,-63
12969.58,71,-18,-50,52,54,-16,-6,70
12969.58,-38,-93,-2,-13,-10,-7,-1,-91
12981.13,26,-55,-19,-117,45,9,-15,7
12981.13,-59,57,28,73,-36,-8,23,8
12988.614,36,-8,48,-99,34,24,26,70
12988.614,44,-115,-29,63,50,-5,-4,32
13005.047,-56,-56,-29,-45,-52,-2,-19,-56
13005.047,96,100,55,77,-66,3,21,54
13006.541,-61,-95,-13,-27,89,8,-18,-35
13006.541,1,-45,46,2,3,13,3,35
13027.374,-22,56,43,25,-6,-4,6,20
13027.374,53,-17,-31,-62,-46,-19,9,24
13028.387,-38,-2,16,77,-5,5,-22,-46
13028.387,10,29,-50,17,6,0,5,-20
13041.664,14,69,2,-29,25,-2,3,46
13041.664,-66,-105,10,9,23,7,7,-12
13048.571,93,127,8,76,-99,-45,-14,-16
13048.571,-20,-116,36,-21,7,39,5,19
13065.156,-2,65,-58,-12,-41,-4,0,47
13065.156,-27,10,-23,-25,31,1,-10,-74
13066.207,-25,21,27,50,-128,-40,20,-12
13066.207,104,-14,-2,4,113,42,-15,29
13087.427,-46,-12,-15,-72,-55,-34,-32,-49
13087.427,-20,70,0,73,16,9,12,33
13088.436,-17,51,16,-20,17,-1,4,-10
13088.436,8,75,51,49,-13,-11,25,33
13101.158,6,-43,42,73,9,2,0,-25
13101.158,39,-20,-56,-13,39,-6,-29,-8
13108.636,7,-20,-3,-112,-14,25,24,70
13108.636,-28,79,-14,-54,-29,-20,-17,-98
13124.633,11,-126,42,50,-53,-12,6,68
13124.633,-33,39,8,-6,62,30,10,40
13125.646,-38,-100,53,68,17,-2,-7,-27
13125.646,33,-20,6,4,10,15,20,28
13147.423,-2,72,18,16,-10,-13,-22,-47
13147.423,-7,119,-18,44,40,4,30,65
13148.433,10,6,22,-46,-86,-2,-16,-31
13148.433,-37,-105,-30,-70,41,-10,-24,-43
13170.247,-12,127,6,-23,9,3,10,-20
13170.247,15,26,14,-37,-39,-15,0,-8
13171.256,64,69,-12,50,-7,-2,24,72
13171.256,-70,-5,-15,11,-58,-21,-56,-63
13184.844,0,38,-8,53,30,11,16,54
13184.844,8,-85,-55,-128,-26,5,1,-70
13186.84,-41,31,75,40,-33,-14,-12,-4
13186.84,38,-13,-25,54,15,-5,21,71
13215.063,-23,60,-5,60,-11,0,-31,-65
13215.063,-49,36,45,-24,-8,13,10,-11
13216.085,87,127,-6,-4,11,10,43,87
13216.085,-54,-16,19,23,3,-9,-28,-14
13221.818,-6,-26,-7,-34,-35,15,6,-90
13221.818,-17,50,37,56,-10,-5,6,49
13228.236,38,58,-78,27,124,2,-5,-16
13228.236,21,118,-20,-41,-51,12,6,25
13244.384,9,28,-21,-15,-21,-13,-2,65
13244.384,0,64,-43,-53,-20,4,-13,-65
13246.441,-72,-83,11,-5,-23,-11,8,27
13246.441,7,-4,15,27,-12,-15,3,-3
13267.327,16,-61,11,29,22,13,1,13
13267.327,53,-50,-8,-6,64,-13,7,14
13269.34,-99,-45,9,-95,38,16,-26,-67
13269.34,65,41,-50,-6,-56,-8,31,-11
13281.857,-12,-59,-18,46,64,17,-15,-12
13281.857,21,-34,48,25,-20,1,7,55
13288.237,38,30,-23,-4,-34,-19,-14,-24
13288.237,-72,13,-7,5,8,0,-7,-3
13304.879,-44,29,0,-68,6,-2,11,-10
13304.879,-44,-57,-10,23,-19,-3,-1,-11
13305.912,49,94,25,-28,3,9,-2,5
13305.912,39,-32,-2,53,20,-11,20,68
13327.195,15,57,-24,50,-4,-5,-19,-4
13327.195,-32,30,21,-60,-2,2,-8,-66
13329.188,-23,57,29,30,-54,-2,7,17
13329.188,77,104,39,24,54,19,4,-9
13340.947,19,-122,-19,74,-36,-8,4,27
13340.947,1,47,15,20,67,26,-11,-21
13349.995,-89,-91,-7,90,-55,-22,-3,3
13349.995,95,82,19,55,29,31,34,70
13365.528,-83,55,3,-31,10,-4,-57,-98
13365.528,-35,19,-5,-38,-40,-16,3,29
13371.217,-2,-40,-45,-62,-47,-6,2,-18
13371.217,21,126,71,35,61,5,21,14
13387.473,36,-72,-27,-27,-16,-7,-11,22
13387.473,-22,-22,1,46,0,5,-4,21
13388.749,-12,-11,9,-45,28,7,-14,-33
13388.749,-4,111,-30,7,-111,-25,6,32
13400.94,62,-45,73,51,123,12,7,-47
13400.94,-23,-125,-79,-24,-63,-15,-15,15
13409.546,-11,23,-9,-26,-2,7,7,-27
13409.546,-42,68,6,-76,-33,-3,-7,17
13424.853,66,58,54,99,-37,-12,14,44
13424.853,-65,-82,-52,49,8,7,-2,-56
13425.878,70,53,-30,37,29,9,-10,19
13425.878,25,-44,7,73,53,-9,8,3
13447.289,-50,-38,-37,-128,-54,1,-9,16
13447.289,51,127,57,57,16,1,2,-17
13448.302,17,-55,-45,35,0,2,3,22
13448.302,-70,51,15,-67,-9,4,-7,5
13461.225,58,-19,10,51,-12,-2,33,-50
13461.225,79,111,-37,-13,-28,-16,-9,72
13470.196,-107,-99,13,25,55,18,-24,-75
13470.196,38,-15,-10,11,-32,0,-6,-97
13485.166,-16,-50,25,15,16,10,27,83
13485.166,40,119,9,-11,-39,-24,-4,3
13486.281,17,-5,-7,-59,76,9,5,24
13486.281,-60,-49,-56,-19,-49,-8,-15,-23
13507.428,50,102,-18,-52,-7,5,5,14
13507.428,-3,25,34,80,0,0,0,-9
13508.449,2,-15,33,33,14,-2,0,18
13508.449,-41,28,6,53,37,-8,9,0
13520.453,28,-29,-27,-80,-27,7,-24,-22
13520.453,18,-21,37,11,6,11,9,39
13529.56,-23,118,-11,57,19,-18,-19,-34
13529.56,16,-90,-15,-59,-22,27,17,7
13545.181,36,50,-57,23,20,-23,-3,10
13545.181,-7,-35,5,-72,-16,12,1,24
13546.209,-13,-18,31,11,-67,-2,-7,-43
13546.209,-40,15,32,127,98,5,-8,-30
13567.69,87,12,-10,-39,-22,-12,21,39
13567.69,-70,-128,2,-99,-26,1,-14,4
13568.621,-2,34,-10,33,19,4,15,-17
13568.621,-21,-17,11,-2,-52,-12,-2,14
13580.883,-3,111,28,86,24,-2,-2,-8
13580.883,-19,-17,-1,94,11,6,9,7
13589.882,74,27,-22,-74,38,16,17,88
13589.882,-35,26,-11,-87,-18,-12,-35,-99
13604.942,-35,86,36,-12,-6,8,12,58
13604.942,17,17,-1,-79,21,-19,-22,1
13611.372,-41,-102,-33,-13,-11,3,17,-16
13611.372,77,86,7,114,-1,-12,13,66
13627.017,-68,-122,-66,-69,64,36,-28,-57
13627.017,15,65,11,17,12,6,11,16
13628.025,28,38,-39,-99,-28,-14,6,34
13628.025,29,75,22,44,-92,1,0,-25
13640.858,-41,18,-33,-30,31,8,-1,7
13640.858,2,83,0,82,9,6,4,8
13649.627,-6,53,50,-68,-15,-8,-11,-34
13649.627,26,-75,-8,-60,59,12,14,56
13665.238,-49,34,22,54,-48,-13,-14,-44
13665.238,26,-54,24,64,-88,-18,5,25
13666.246,67,119,-16,-39,87,1,-5,2
13666.246,-87,-42,-83,-96,-79,-21,-19,47
13687.393,-22,94,24,60,5,3,13,-102
13687.393,47,119,40,27,34,27,41,82
13688.407,-49,-87,-30,29,-77,-42,-63,-121
13688.407,-8,-33,24,-11,42,7,5,42
13700.912,11,-105,-13,47,3,-3,24,64
13700.912,38,70,-41,-43,0,14,-2,-22
13709.439,-51,-26,-19,47,5,17,4,26
13709.439,-1,6,-27,43,-1,6,-6,-116
13725.277,-24,66,48,19,53,-22,5,20
13725.277,42,-51,19,52,-42,6,12,42
13726.293,20,-23,11,12,-1,5,-7,37
13726.293,-31,-8,7,30,-62,-3,-3,-66
13747.67,37,57,-2,47,75,-8,18,63
13747.67,-69,-83,-25,-3,3,10,-30,-78
13748.69,-6,-62,-58,-20,-4,3,-2,25
13748.69,-14,2,22,-111,-28,-8,13,44
13770.126,8,-20,20,11,-49,-3,1,-23
13770.126,-17,-4,4,57,21,-19,-1,-12
13771.122,34,-57,15,24,12,19,-2,8
13771.122,-48,124,7,53,10,3,-9,18
13784.202,29,72,22,-39,-1,12,15,-44
13784.202,-52,-79,-85,-128,-6,-4,1,-3
13798.538,12,107,-1,92,31,-12,21,18
13798.538,11,-25,16,-123,-61,-4,-11,-26
13814.839,-17,-16,-3,-11,32,36,4,72
13814.839,75,26,36,40,26,-30,-34,-34
13815.866,-71,-19,-9,-19,-118,-16,15,-21
13815.866,127,30,-59,31,127,22,16,76
13829.34,-106,-109,-7,-125,-128,1,-33,-9
13829.34,4,127,47,-12,-18,-9,8,-46
13831.549,30,44,25,71,-9,10,7,21
13831.549,15,62,53,127,15,-15,22,38
13844.651,26,-51,-20,-55,13,3,-23,-17
13844.651,-36,-18,-51,-28,34,10,-11,-19
13846.856,-23,-7,16,-60,-12,-10,-8,-46
13846.856,-25,42,64,67,-32,5,35,30
13868.103,94,-63,-71,21,83,-8,-18,35
13868.103,-60,-3,1,7,-70,-6,-16,-18
13869.1,6,71,19,30,-17,9,7,-4
13869.1,4,-37,-1,7,-1,0,-8,-32
13890.068,8,74,22,0,-13,-15,28,42
13890.068,-14,-93,-49,85,51,28,7,32
13892.062,-38,28,17,-89,-2,-6,-43,-48
13892.062,0,-17,-46,-128,-45,-12,-8,-20
13903.97,-21,43,34,56,-9,-4,14,28
13903.97,37,127,63,79,-55,-21,22,-47
13910.341,17,-97,-24,127,112,32,-1,26
13910.341,-45,-26,-12,-81,-51,12,-28,-37
13927.296,-44,62,-36,-92,-100,-25,-10,-44
13927.296,53,106,0,52,101,12,38,72
13929.29,112,-102,-16,13,-128,-11,-8,38
13929.29,-50,0,45,78,8,-7,-26,-66
13949.577,-19,-9,-60,59,61,26,2,-79
13949.577,-16,1,25,-72,-73,-28,1,33
13951.693,56,127,40,46,24,-8,24,72
13951.693,-52,-124,-80,-39,10,5,-28,11
13964.542,0,120,26,-73,-61,-10,-4,-66
13964.542,-6,67,43,72,17,2,2,39
13970.993,44,-51,2,-89,38,3,12,-4
13970.993,-55,-47,-17,13,47,21,-23,-8
13986.715,21,59,68,127,13,-2,2,7
13986.715,-26,17,-29,-100,6,-1,-3,-33
13988.708,-17,20,9,-114,-28,4,23,40
13988.708,67,37,42,46,-5,-15,1,-5
14009.638,-13,-85,3,91,24,9,-6,4
14009.638,32,109,4,-2,-14,4,4,-29
14011.631,-58,-54,-9,15,8,6,8,41
14011.631,14,92,0,-13,10,-1,-10,-6
14024.061,-31,41,52,26,5,5,1,14
14024.061,37,43,-7,40,-16,-6,-16,-69
14030.869,1,-61,-24,28,-33,-8,-2,-2
14030.869,48,-2,6,25,-32,-8,34,52
14047.794,57,-77,19,-115,84,26,-26,34
14047.794,-54,-68,8,18,-60,-6,-10,13
14048.832,-6,54,-45,-39,-4,-7,-9,-54
14048.832,35,90,40,36,-25,6,18,47
14069.083,-26,-90,-45,15,-37,-22,12,20
14069.083,-8,3,-15,13,58,-1,-16,-21
14075.746,14,-51,-9,76,-24,15,-3,-2
14075.746,-8,-63,-12,-83,55,3,8,12
14084.252,-71,3,30,-10,-85,-6,6,-14
14084.252,77,12,6,50,77,10,-13,13
14091.111,-71,54,-3,40,-30,-1,3,-8
14091.111,-1,37,0,10,-7,0,2,-1
14107.356,21,28,12,-13,-28,-1,7,10
14107.356,-12,-18,-23,-2,18,5,5,9
14108.368,-35,-14,46,60,14,-7,-4,10
14108.368,32,-12,-33,55,11,8,-6,-39
14129.899,-3,58,3,-109,-12,-9,4,33
14129.899,-22,5,9,75,-14,-14,12,-6
14130.937,85,67,-55,-9,20,5,-1,41
14130.937,-84,-19,38,64,-15,10,-27,-76
14144.109,9,83,-29,-29,-16,-9,7,23
14144.109,-16,-9,-6,-128,-76,-14,-4,6
14151.968,9,82,66,41,-8,1,7,0
14151.968,16,-6,46,120,53,-3,13,-3
14174.843,39,-16,-31,16,-32,6,-12,-6
14174.843,1,-114,-41,-86,21,8,8,24
14175.888,-37,35,20,-73,-9,-9,-24,-70
14175.888,10,9,-12,-76,-19,-5,20,40
14190.149,2,-58,-1,51,18,-1,-3,-9
14190.149,5,-77,-28,-12,12,-4,-12,10
14191.144,-4,11,-4,-8,-10,10,1,9
14191.144,-6,1,4,-10,-5,-3,-5,-16
14204.449,19,78,3,63,27,-6,22,27
14204.449,-29,-90,-88,-7,21,22,-30,36
14210.428,-43,97,3,36,44,-6,11,-80
14210.428,41,93,0,-41,-54,-16,-7,52
14227.731,6,16,-11,38,87,20,23,25
14227.731,36,59,6,-26,-108,-1,0,19
14228.826,-2,-17,-1,26,-14,-5,-5,-7
14228.826,-89,-77,-1,42,4,-2,-1,37
14257.212,83,102,30,54,-44,-34,-4,-110
14257.212,16,-91,-7,54,32,1,-14,13
14258.268,-7,71,55,-13,28,15,7,17
14258.268,39,119,33,-23,-27,-8,10,13
14263.848,-46,-100,-48,-5,10,-1,-19,42
14263.848,-39,72,37,-51,21,12,7,-80
14279.696,-57,-48,23,-92,-90,-27,-14,-26
14279.696,53,99,36,79,81,13,3,32
14287.393,1,-21,-1,71,27,17,-3,53
14287.393,-54,-22,6,-13,-63,-16,-2,-38
14288.389,13,-58,-61,-37,1,-10,-5,2
14288.389,-40,34,22,66,-87,-24,3,-29
14310.009,51,48,30,-44,82,48,36,82
14310.009,11,-48,-18,107,-103,-25,-47,-46
14311.027,-67,127,-87,-102,-23,-5,2,11
14311.027,10,-6,0,-86,-32,11,6,-27
14332.359,-6,102,-7,125,-34,-33,0,-43
14332.359,34,44,-10,11,41,45,14,41
14333.743,22,-59,-37,30,3,-1,-22,-19
14333.743,-2,-47,-16,-49,14,-7,-6,7
14354.305,-20,-30,-6,-54,-64,-13,7,-26
14354.305,-6,29,7,2,64,1,24,24
14356.479,9,-103,13,87,32,21,0,33
14356.479,11,3,-3,7,8,4,-8,1
14368.608,35,87,18,-33,-24,-1,13,42
14368.608,-58,-89,-4,-116,62,-19,-41,-78
14385.35,-3,89,27,99,-12,4,15,26
14385.35,1,-7,-6,12,-33,-9,0,3
14386.348,-19,-20,-16,87,-3,24,9,46
14386.348,91,127,-7,-13,59,-3,4,17
14392.811,-57,-49,7,-30,-28,-18,-11,-37
14392.811,2,58,-76,-103,1,4,0,65
14407.1,-13,30,9,-92,-37,-11,-26,-119
14407.1,-36,46,48,91,4,3,21,-27
14409.182,67,-15,12,19,-1,3,5,67
14409.182,-3,-69,21,-51,-63,-14,-3,-52
14429.308,10,17,-75,16,102,18,-3,39
14429.308,-57,-76,21,-103,-109,-8,-12,-6
14431.508,27,46,45,80,72,-11,24,-31
14431.508,-24,-58,-42,85,16,21,-20,-17
14443.247,-5,-77,1,-29,-57,-11,0,29
14443.247,-15,-36,-14,7,29,2,1,16
14459.701,10,53,0,-4,-49,-3,4,-15
14459.701,-1,5,-4,15,53,-8,-2,2
14466.671,1,-40,-22,48,-10,0,-12,15
14466.671,11,20,-28,28,-19,7,13,3
14468.701,-11,-10,-4,-80,-1,-6,-10,-12
14468.701,27,-2,28,59,24,6,-4,-43
14504.896,4,12,17,-84,-24,-5,-1,18
14504.896,-43,12,-66,82,-67,-8,-3,-9
14507.137,40,53,-7,16,99,16,34,19
14507.137,-6,-69,7,-47,-25,-6,-24,-37
14508.164,-28,15,34,98,-20,-6,-5,-10
14508.164,21,-43,38,-97,-21,-1,18,19
14511.924,-19,59,-21,56,-9,2,1,3
14511.924,-23,20,-3,-78,-11,-3,8,11
14527.367,60,4,5,24,4,-25,-43,5
14527.367,-63,-62,9,4,5,24,24,-44
14528.468,-4,8,-20,-29,15,1,47,-8
14528.468,8,-64,-5,22,-1,2,-13,31
14550.755,-5,84,46,-86,-20,-1,55,9
14550.755,31,-56,6,106,2,-10,-40,-20
14551.75,6,-7,45,23,7,-2,-8,37
14551.75,8,78,-33,2,-9,6,8,-19
14563.884,-23,33,-20,-23,38,5,-29,22
14563.884,17,82,68,-84,8,7,10,-48
14572.675,28,-82,-19,69,-64,-31,24,56
14572.675,14,-14,-2,-79,47,36,-24,-18
14586.757,-53,-84,18,50,-60,-12,-21,-54
14586.757,9,127,-18,38,15,5,23,59
14588.869,28,-109,59,-3,-18,0,-4,15
14588.869,-57,55,-27,-5,-54,-25,-41,-56
14617.666,10,87,-36,-95,10,10,53,12
14617.666,32,-105,53,38,3,2,-38,12
14619.17,-11,78,15,88,18,10,1,-32
14619.17,31,-4,22,23,36,5,26,56
14623.253,-13,-13,-42,-79,-49,-6,4,1
14623.253,-10,7,24,27,6,-15,0,-36
14631.836,22,-14,-51,-42,50,30,-16,26
14631.836,-16,-49,-38,-60,-25,-9,-17,-3
14647.722,-47,33,76,91,-50,-15,19,-23
14647.722,126,-9,-46,26,80,21,6,65
14648.744,-85,20,-48,-128,-84,-15,-44,-67
14648.744,-24,105,10,-5,22,1,12,-18
14669.293,0,-8,23,44,-31,-6,-3,7
14669.293,47,127,31,35,11,-4,20,69
14671.411,34,-22,-12,-35,11,2,-23,-42
14671.411,-55,-72,-62,-43,-25,-6,0,-7
14700.121,20,2,16,-43,22,6,-17,-29
14700.121,-44,26,9,65,-10,-5,40,7
14701.146,-1,-52,-26,-34,14,-5,-37,-13
14701.146,36,42,72,-14,-25,2,21,41
14707.241,-39,38,16,80,55,3,-9,-41
14707.241,50,-36,-63,-105,7,16,3,69
14708.64,-98,-28,9,-58,-56,-10,-16,-71
14708.64,48,51,10,98,52,8,11,47
14730.108,-11,31,16,75,-3,-4,8,-22
14730.108,25,35,-9,53,9,-17,-16,-5
14731.105,-9,-12,53,89,-42,9,20,-21
14731.105,-2,-59,25,-75,33,17,-2,43
14752.366,-23,7,25,-54,38,26,17,-21
14752.366,57,20,-36,95,21,-19,6,51
14753.389,-26,-64,-56,29,-53,-2,-17,37
14753.389,-42,97,-12,-5,-12,-2,20,-28
14774.731,31,4,-92,-41,-8,-11,-23,-26
14774.731,-59,34,1,-33,-17,1,16,-4
14776.829,60,23,56,72,19,0,0,47
14776.829,-10,-107,-15,52,-2,5,-22,-24
14789.776,8,18,-30,-100,-34,-6,14,-15
14789.776,-52,-72,17,-20,14,2,-19,7
14791.167,23,23,48,46,40,7,28,9
14791.167,82,100,-13,1,0,-26,7,28
14812.327,-49,-120,3,-75,-54,5,-70,-33
14812.327,-70,-5,19,24,-38,1,10,-70
14813.583,22,78,26,43,19,-2,7,68
14813.583,-11,-84,56,83,-21,-15,12,-8
14827.252,19,16,-46,127,-2,-3,9,27
14827.252,-36,21,32,-128,-26,8,-7,8
14833.778,28,25,-22,-115,-25,2,-6,-1
14833.778,0,-3,10,116,10,4,-7,-32
14850.234,5,-41,21,107,34,9,12,41
14850.234,5,44,-27,-65,-50,-14,18,-35
14851.346,8,-16,-17,-17,38,-2,4,-8
14851.346,12,56,31,-12,-19,12,-29,65
14871.826,-21,-115,-13,-10,10,-3,10,-84
14871.826,-2,63,30,40,-8,-13,7,0
14874.209,-29,25,-19,-55,6,9,-25,88
14874.209,71,94,2,1,46,-4,26,-74
14886.273,-41,-88,25,-48,2,-3,-44,17
14886.273,-29,16,23,36,-13,5,8,-22
14893.384,44,77,-9,53,61,18,11,27
14893.384,-31,-20,39,115,-12,-6,14,19
14909.865,42,11,-40,-77,30,11,-1,36
14909.865,-59,-70,7,-38,-17,-5,-6,-72
14910.87,13,3,40,63,-25,-13,-3,10
14910.87,-13,-37,10,50,-16,7,-6,-6
14932.056,24,37,4,74,-32,-4,18,-4
14932.056,-22,-35,-18,-31,67,7,-45,14
14933.09,2,-10,-3,-16,1,-2,34,-1
14933.09,40,10,-29,-28,-22,-15,10,-16
14947.082,-27,-59,11,-45,-7,5,-38,-20
14947.082,-8,16,1,-50,-16,-1,20,11
14953.084,-16,-9,-18,-88,-15,-3,-23,-28
14953.084,-24,20,3,21,4,0,21,-56
14984.875,38,48,-15,34,52,5,22,73
14984.875,39,-14,24,71,-74,-19,-26,1
14986.708,15,118,65,95,94,46,42,15
14986.708,4,-128,-9,-62,-80,-1,-36,14
14990.951,-46,122,-33,-11,-9,-11,-13,-63
14990.951,15,36,-19,-52,-33,-4,19,16
15000.074,11,35,47,39,-29,-17,-10,-4
15000.074,12,46,-37,95,47,9,10,30
15006.859,25,-39,16,112,18,6,-9,15
15006.859,-8,-27,-14,-86,-7,-7,24,11
15013.262,-6,-3,-88,7,-17,-9,-22,30
15013.262,-4,-8,7,-55,17,1,15,-74
15029.055,-11,-30,-6,16,-56,0,-3,45
15029.055,53,106,17,127,116,-3,-13,24
15030.808,-38,-118,-3,-102,-64,3,-18,-84
15030.808,-28,5,-17,-82,-43,-15,-22,36
15052.185,9,17,-8,3,-3,-5,-69,32
15052.185,0,4,21,103,1,13,106,-45
15054.181,37,46,22,63,14,-3,-19,19
15054.181,-7,36,-38,10,29,-4,-9,-2
15066.134,25,-35,-36,-109,-30,2,2,-2
15066.134,-20,-34,-14,14,16,7,-46,12
15073.27,0,6,-3,47,3,-10,6,-8
15073.27,-8,-3,-10,-89,-75,-9,14,14
15089.574,19,36,4,-40,119,9,20,6
15089.574,8,-9,-13,-78,-86,-1,-29,55
15091.805,-14,-27,-38,2,-46,-8,19,-87
15091.805,3,21,34,66,17,8,2,48
15111.996,4,5,-1,34,-33,-14,21,-28
15111.996,-4,-19,-17,3,10,5,-12,-6
15114.016,-10,-10,53,-25,18,5,3,15
15114.016,-7,-4,-34,0,7,-4,-22,-2
15126.018,15,18,29,-2,3,1,16,-13
15126.018,-14,-27,4,10,9,6,31,-27
15133.256,4,11,-44,-17,-17,-8,-9,17
15133.256,2,-1,2,27,29,4,-28,-9
15149.729,-17,-18,7,-33,-18,-1,31,26
15149.729,6,2,2,18,-3,3,-33,-31
15151.783,4,-3,-3,-11,-6,-8,-6,-3
15151.783,-7,-17,-26,-4,10,2,24,42
15172.092,-14,15,39,10,4,6,4,-40
15172.092,24,0,-3,14,-1,-2,-7,2
15173.12,-5,-11,13,-14,1,-1,20,21
15173.12,-5,-1,7,4,8,5,-16,-25
15185.59,15,13,25,10,-11,-5,0,21
15185.59,-13,-14,-22,10,7,0,-22,4
15195.143,7,-3,15,-2,2,0,39,-5
15195.143,-3,-13,-63,-11,-20,-1,10,5
15210.18,2,8,39,-4,10,1,5,-7
15210.18,7,-14,16,-17,0,-1,-21,13
15211.187,-15,-2,10,-2,-2,-2,-34,-19
15211.187,-2,-8,-24,8,9,2,15,-13
15232.01,9,7,0,26,-10,3,26,20
15232.01,-3,-1,-3,30,5,-3,-4,19
15233.016,-31,4,7,-8,-3,-7,-11,-45
15233.016,1,0,39,-12,-6,1,-35,12
15245.655,3,-1,-25,14,0,5,42,3
15245.655,-36,-4,-53,61,10,3,-14,22
15254.856,12,-7,30,-2,4,2,11,1
15254.856,-7,1,26,-26,6,-2,-8,-9
15276.992,19,3,15,-12,-1,-5,-22,20
15276.992,6,2,17,10,2,2,-7,-31
15278.004,-22,0,-22,8,-2,-1,20,36
15278.004,15,0,19,6,9,3,46,30
15292.809,-6,4,0,-3,-4,0,-33,-86
15292.809,43,4,-9,-28,-3,-5,-17,57
15293.891,-23,-4,-7,-1,0,-1,4,-78
15293.891,-5,2,18,-42,3,-1,-31,9
15305.456,-14,-3,-8,78,3,1,70,6
15305.456,3,0,1,-81,4,3,-29,16
15315.413,34,1,-16,74,1,2,-13,9
15315.413,-17,-1,20,123,4,0,-10,-21
15336.889,-17,3,-18,-39,-14,-9,0,-1
15336.889,-9,-4,1,31,-13,-4,-9,-37
15338.065,30,6,1,-49,10,3,-22,46
15338.065,12,0,2,34,5,4,100,19
15352.883,-40,7,-3,27,10,1,-73,-42
15352.883,2,1,2,-42,-7,-4,27,10
15353.921,-12,-3,-6,5,-8,1,-9,23
15353.921,10,3,4,4,12,2,-18,-21
15366.314,-4,-3,-14,-58,-10,-4,-11,20
15366.314,3,1,7,13,2,0,32,9
15374.858,-24,-3,-2,9,-4,-2,-17,-32
15374.858,1,1,7,-15,6,1,-42,12
15388.985,28,-7,-8,0,0,1,91,18
15388.985,-27,-4,1,-24,6,2,-38,-32
15391.47,-1,-2,-3,75,-5,-5,10,31
15391.47,-2,-4,-7,-96,-13,-1,-18,-19
15412.344,2,0,2,9,3,0,-8,-11
15412.344,-1,1,9,36,4,3,-27,16
15413.357,-1,4,6,39,13,2,61,3
15413.357,-18,0,-5,-61,-6,0,-9,-15
15425.925,-2,-5,-4,-24,-7,-4,-39,-8
15425.925,-10,-4,-4,-42,-8,-4,28,-8
15435.12,32,2,-1,-12,0,1,-11,7
15435.12,0,2,1,35,-5,0,4,-2
15449.582,7,2,7,8,5,3,-15,20
15449.582,-7,-10,15,50,12,4,22,-16
15451.009,-7,-4,-7,-2,-4,0,-6,-3
15451.009,6,-5,11,-37,-2,0,-1,5
15471.511,11,-10,10,27,4,-1,-3,14
15471.511,2,0,-2,13,-4,-1,26,-13
15479.981,-1,2,-4,-35,-3,2,-11,-2
15479.981,-3,-1,3,19,2,1,3,-1
15485.479,3,0,-3,4,-1,-1,-10,3
15485.479,-7,1,0,9,-1,-1,8,-4
15495.164,13,3,-5,-26,1,-2,-3,10
15495.164,-11,-2,-8,-14,-12,-5,0,-11
15509.696,1,0,-4,-40,-2,-1,-14,7
15509.696,1,0,10,32,4,0,15,-4
15510.711,8,0,-3,8,3,0,4,4
15510.711,1,-1,2,39,-2,-3,-3,2
15539.952,-2,0,-5,13,-3,0,-1,3
15539.952,1,1,-4,-21,1,1,-7,-2
15541.272,0,-4,8,-3,4,1,0,-4
15541.272,6,-1,-4,-5,3,2,10,0
15546.263,1,-1,-2,-10,0,0,-7,0
15546.263,-3,3,-3,10,-4,-3,1,-5
15554.598,0,-1,-6,-30,-4,-1,-3,-2
15554.598,-3,0,2,4,0,1,2,1
15568.879,-4,0,0,9,2,0,-5,1
15568.879,5,0,-3,6,-1,0,0,1
15571.531,-1,0,1,10,-2,1,1,2
15571.531,0,0,-5,-24,-2,0,-3,-6
15592.059,3,4,3,17,-3,-1,4,0
15592.059,-1,1,-2,2,-2,0,2,-4
15594.237,-2,0,0,-12,-2,-3,-9,-1
15594.237,7,1,6,50,7,3,4,4
15615.486,-6,-3,-8,-20,-2,1,13,-7
15615.486,0,3,-4,-6,-2,1,-8,-3
15617.03,-7,0,6,13,-1,-1,-3,-2
15617.03,2,2,1,-3,5,0,-1,3
15629.85,6,-2,-3,13,3,-1,-3,-10
15629.85,0,2,-3,-3,-4,-2,7,9
15630.861,0,1,-2,-45,-3,-2,-5,-5
15630.861,2,1,6,85,6,1,3,2
15652.005,-1,-2,-7,-34,-4,0,-3,3
15652.005,-3,-3,-5,-40,-7,-3,-18,-3
15653.412,0,-2,-1,-29,4,1,37,-3
15653.412,1,-3,-1,5,0,3,-17,3
15674.335,-1,2,4,-17,-1,-2,3,5
15674.335,13,-3,-4,18,5,0,-3,-13
15680.573,-5,1,-7,2,-6,-4,-13,-4
15680.573,-1,1,1,-23,2,1,17,2
15689.558,1,-1,1,29,6,2,-21,2
15689.558,-4,-3,-4,-23,-5,-2,6,-2
15691.647,2,-2,6,2,1,2,10,5
15691.647,-1,-3,0,13,0,-1,-3,2
15712.386,0,-1,-1,-10,-2,-1,-5,2
15712.386,-2,5,8,31,8,2,-93,-5
15713.805,-1,3,1,38,0,-2,86,-3
15713.805,1,-3,-21,-66,-25,-5,-24,15
15734.044,-2,-2,5,59,-5,-3,-3,-2
15734.044,-4,0,0,37,6,5,6,0
15736.36,-4,-2,2,8,7,1,-40,-3
15736.36,-1,2,5,17,6,1,11,-7
15749.032,0,1,-5,-18,1,-2,10,1
15749.032,-1,1,-3,-17,-3,-3,3,-1
15757.231,2,1,3,1,-2,-1,-7,5
15757.231,-1,-4,1,19,-1,-2,19,-6
15772.321,0,0,1,-37,-1,0,-15,0
15772.321,-3,-2,0,3,-8,-4,29,0
15774.329,0,-3,-4,-15,2,0,-18,3
15774.329,2,1,0,-4,4,0,-15,-3
15795.112,1,2,-2,6,5,2,24,3
15795.112,1,-1,0,-6,0,0,14,0
15796.233,-1,3,-3,-19,-9,-1,-7,1
15796.233,-1,0,2,2,-2,-4,-29,-11
15809.296,-3,1,3,23,4,2,17,-9
15809.296,0,-3,1,-2,0,-1,30,22
15816.16,0,-3,-1,-16,-7,-3,-40,-15
15816.16,-1,-1,1,19,5,3,35,1
15832.538,-1,-1,-9,-34,-3,-1,-15,0
15832.538,0,2,-1,12,1,1,1,-2
15833.532,0,-2,1,8,-3,-3,-7,2
15833.532,-2,1,3,4,1,-2,-10,-1
15853.483,-1,2,2,16,0,1,4,2
15853.483,-1,-1,-1,3,2,0,5,-4
15854.482,2,0,0,-5,1,0,-6,2
15854.482,-1,0,2,-6,-1,0,6,-5
15869.366,0,-1,-3,11,1,-1,-3,2
15869.366,-5,-3,-4,-15,-5,-2,5,-3
15876.469,-1,0,1,3,1,1,-5,1
15876.469,0,3,0,-10,0,0,3,0
15891.643,1,0,-2,-3,-3,1,-2,3
15891.643,0,-3,-1,-4,-1,-1,-4,-1
15892.661,0,-1,1,2,1,-1,5,-1
15892.661,1,1,1,2,-2,-1,1,2
15913.648,0,0,-1,-4,-3,1,-3,2
15913.648,0,3,1,1,4,0,4,-3
15914.724,2,0,1,2,-1,0,-4,-1
15914.724,-1,-1,0,-2,-1,0,0,-1
15927.964,1,0,0,20,1,-1,-3,-2
15927.964,2,-1,-2,-19,-1,-1,2,0
15936.235,1,2,2,-12,-1,1,0,1
15936.235,0,0,-1,-14,-2,-1,-1,0
15951.093,-2,-1,-3,4,2,-1,2,0
15951.093,0,2,3,15,-1,0,-2,-3
15952.229,2,0,-1,7,1,1,-2,0
15952.229,-1,-2,-3,-4,0,0,-1,-1
15974.565,-1,-1,2,1,1,0,0,1
15974.565,1,1,0,4,0,-1,0,0
15974.565,-1,1,0,-21,-4,-2,-3,-2
15974.565,-1,0,3,-6,0,0,-2,-1
15988.684,0,0,-3,40,2,2,-1,1
15988.684,-1,-3,-6,-63,-2,-1,0,-1
15996.112,0,-1,2,14,-1,-1,-1,-2
15996.112,0,-1,-4,5,1,0,-24,3
16011.905,-2,-1,3,5,-1,0,40,-13
16011.905,3,0,5,16,0,0,-19,3
16011.905,-3,-2,-3,4,-1,0,-1,-1
16011.905,-2,-1,-3,-10,-2,0,-7,2
16034.237,-3,-2,-3,-17,-3,-3,-7,-12
16034.237,-2,-1,1,10,1,1,4,-1
16035.256,4,-1,4,-7,1,1,1,-5
16035.256,-1,2,3,18,0,0,4,7
16048.067,0,-2,-1,-16,-2,0,-8,3
16048.067,-2,0,0,-3,0,0,9,-1
16056.899,-1,1,-2,22,3,0,-6,4
16056.899,-1,-2,-4,-21,-3,0,9,-5
16071.473,-1,1,2,-2,0,-1,-5,3
16071.473,-1,3,-7,6,-1,-1,3,3
16072.732,0,1,-6,4,1,0,-3,1
16072.732,0,-2,-1,4,0,-1,6,-1
16093.595,-1,-4,-1,-16,-1,-1,-4,1
16093.595,0,-2,6,5,-1,-1,-3,-5
16094.649,0,2,4,9,-3,0,4,2
16094.649,-1,0,-1,-11,2,-1,4,-2
16108.865,1,2,3,3,2,-1,-10,3
16108.865,-2,-1,0,12,-4,-2,2,-3
16116.544,-1,-2,2,7,1,1,2,2
16116.544,2,0,1,2,2,-2,2,0
16131.835,-2,0,-11,-16,-7,-3,4,4
16131.835,-1,1,0,0,2,-3,-1,0
16131.835,0,1,2,-2,0,1,2,1
16131.835,-1,-1,-2,4,-2,-1,-3,-3
16154.087,0,1,0,4,8,2,-3,2
16154.087,1,-2,0,4,-5,-1,3,-2
16155.103,-2,-3,-1,-7,-3,0,-4,1
16155.103,-1,0,1,-5,7,2,2,-3
16168.385,-1,1,1,13,-2,-2,-2,1
16168.385,-3,-1,-3,-23,-1,1,1,-2
16176.871,0,0,2,0,-4,-1,-5,-1
16176.871,0,2,-1,8,0,-1,3,-1
16191.442,1,1,2,31,2,2,0,3
16191.442,-1,-2,0,-15,2,2,-3,1
16192.481,-1,1,2,2,-4,-4,-2,-1
16192.481,0,1,3,1,-1,1,4,0
16214.354,0,-2,0,11,4,-3,-6,-2
16214.354,0,0,-2,-11,3,4,2,-1
16214.354,-1,-1,0,-4,-2,-3,0,0
16214.354,0,0,0,8,-1,-2,-1,-1
16228.866,0,-1,4,-6,0,0,-3,-2
16228.866,0,1,-2,12,-5,-2,1,0
16237.03,-1,0,-4,-22,7,2,2,1
16237.03,0,-8,3,0,-3,0,-1,-2
16251.128,1,0,0,-18,1,0,0,5
16251.128,0,0,-1,-6,0,-1,0,1
16252.154,-5,1,1,25,-3,-2,0,-15
16252.154,0,1,-3,2,-3,-1,0,3
16274.026,0,-1,-3,-5,-3,-1,0,1
16274.026,0,-1,1,14,4,-1,-2,4
16274.026,3,0,0,-10,0,1,2,3
16274.026,-1,0,-2,-2,0,-1,-2,-1
16288.483,-2,-1,1,-11,-2,1,0,-2
16288.483,0,1,1,-2,-4,-3,-2,0
16297.078,0,-2,4,10,-1,0,0,2
16297.078,-1,1,-2,10,0,-1,-3,0
16312.042,1,0,-3,-39,-1,0,-1,1
16312.042,-1,-1,-3,42,0,-1,-1,-2
16312.042,0,0,-4,-29,-2,0,-1,5
16312.042,-3,1,2,11,0,0,1,-12
16333.848,-1,1,1,11,4,1,1,1
16333.848,-1,-1,2,10,1,-1,-1,-1
16335.094,4,-2,1,0,-2,0,1,2
16335.094,0,1,-4,-5,-1,-1,-2,6
16348.77,1,3,0,-1,0,1,-7,-5
16348.77,0,0,2,-12,4,0,15,-5
16357.102,-3,-2,0,-7,-3,-1,-9,1
16357.102,0,-2,2,-16,-1,-1,2,3
16371.64,1,0,-2,18,0,0,-2,-2
16371.64,-1,0,0,-4,-3,-2,-5,2
16372.677,2,1,1,13,2,-1,3,-1
16372.677,0,-1,-4,-42,-2,1,2,0
16393.885,0,-1,3,16,-2,-2,-2,-1
16393.885,1,3,0,20,4,1,-2,-1
16394.906,-2,-1,-9,-5,-6,-1,1,-2
16394.906,-2,-1,3,12,-3,-2,-4,-1
16408.479,-1,0,-2,9,-1,0,2,1
16408.479,-2,-2,3,-12,1,-1,-3,-1
16416.165,1,1,5,24,2,1,-2,-1
16416.165,2,-1,-6,-1,2,3,3,-1
16439.895,-1,-1,-3,-16,-2,-1,2,0
16439.895,-1,1,4,18,-1,-1,-2,0
16440.931,-1,1,-1,-16,-1,0,0,-2
16440.931,0,0,0,3,1,-1,1,-1
16453.707,-1,0,0,-4,-2,-4,1,-3
16453.707,-1,3,0,-4,7,4,-1,-1
16454.793,-1,1,0,31,1,1,-3,0
16454.793,-2,-3,-15,-80,-13,-3,-1,-2
16467.939,0,0,0,44,-1,-2,1,0
16467.939,-1,-5,-6,-72,-16,-5,-4,-5
16476.973,1,2,7,13,7,2,1,0
16476.973,1,1,6,51,6,1,3,0
16491.127,-1,-3,-3,12,4,2,0,0
16491.127,-2,0,-4,2,-2,-1,0,2
16492.208,1,-2,0,-4,1,0,1,0
16492.208,-1,-1,0,7,-1,-2,-1,0
16522.567,-1,-1,-5,-31,-3,-1,1,-1
16522.567,1,2,4,11,2,0,-1,-1
16522.567,1,0,-1,-16,-3,-2,-1,-2
16522.567,0,1,1,16,5,1,-2,2
16527.878,-1,-1,-1,-15,-2,-2,-9,0
16527.878,0,-2,-1,9,-1,0,9,0
16536.632,-1,0,2,0,-1,1,-1,1
16536.632,-1,1,-1,-4,-2,-1,0,0
16551.493,-1,1,1,2,-4,-1,2,0
16551.493,1,-4,-2,2,1,-3,-8,0
16552.519,0,-2,-1,-9,-1,-1,1,3
16552.519,-2,2,2,13,0,2,5,-1
16574.404,1,0,1,-11,-1,2,-2,0
16574.404,2,2,0,5,-1,1,1,0
16574.404,0,-4,-3,-6,0,-1,1,-2
16574.404,1,-2,2,2,0,-1,-4,0
16597.715,0,1,0,-2,-1,-1,2,0
16597.715,-1,-1,-1,-2,-2,-2,-1,-1
16597.715,0,0,0,-2,-1,-2,0,-1
16597.715,0,-1,0,3,-2,-1,-1,0
16611.364,-2,-2,-2,0,-1,1,-1,0
16611.364,-2,-2,1,-5,-1,0,0,0
16612.376,-2,1,1,-5,-2,-1,-2,-1
16612.376,0,2,0,6,1,0,3,-1
16633.749,-1,-4,-1,-12,-2,-1,2,-1
16633.749,0,1,1,7,-2,1,-2,2
16633.749,1,1,2,0,1,2,0,-2
16633.749,-2,-1,-1,1,0,-3,0,-1
16657.652,0,2,1,5,1,-1,-1,0
16657.652,-2,-1,-1,-8,-2,-1,-2,0
16657.652,1,-1,-1,-1,-1,-1,1,-2
16657.652,0,-1,3,1,1,1,-2,1
16671.747,1,1,0,-1,-2,2,1,-3
16671.747,1,-7,5,5,2,-1,0,-1
16672.78,-2,-1,-1,10,-1,0,-1,0
16672.78,-1,1,1,-1,-3,-2,-4,-1
16694.115,-3,-3,-6,-15,0,-3,0,0
16694.115,1,2,-2,-9,-2,0,0,-1
16695.288,2,-1,-1,2,-1,0,0,1
16695.288,0,-3,-1,13,1,0,-1,-2
16733.959,1,2,2,7,1,0,-3,0
16733.959,0,3,-1,1,1,1,-1,0
16733.959,-2,-1,0,-4,-1,-1,0,0
16733.959,1,0,-2,-7,-4,1,-1,0
16736.296,1,0,-1,-3,0,1,0,-3
16736.296,-2,0,1,17,0,-2,2,0
16739.309,0,-1,-3,-28,-3,0,-2,0
16739.309,-2,-1,-3,-7,-3,-2,1,-1
16753.634,-2,-1,1,3,5,1,1,0
16753.634,1,-1,5,7,-4,-2,-2,0
16755.093,-1,0,-5,7,2,-3,-1,-1
16755.093,1,1,-1,-1,-2,-1,1,1
16785.071,1,0,-2,-4,-1,-2,2,-2
16785.071,-1,1,-3,1,-2,1,-2,-3
16785.071,0,2,0,0,0,0,-1,0
16785.071,-2,0,1,-2,3,1,1,0
16791.633,-3,0,-2,7,-1,-1,-1,1
16791.633,2,-1,2,0,1,1,1,0
16792.629,-1,0,-1,6,-4,0,1,-1
16792.629,-1,-2,-3,-25,-2,0,-2,0
16814.506,-1,-1,-3,-1,2,1,-1,-2
16814.506,-2,0,-4,8,-3,-4,-3,-1
16814.506,1,0,4,4,3,-1,-2,-2
16814.506,-1,-1,-1,12,-2,0,-1,-1
16837.432,-1,0,2,-3,-3,-3,0,3
16837.432,0,0,-1,1,9,0,1,-1
16838.446,0,-2,-2,-4,0,1,1,0
16838.446,0,-3,5,3,0,0,0,0
16851.592,1,2,0,-7,-4,1,-1,-1
16851.592,0,1,1,18,-1,1,-1,0
16852.603,-3,-3,-4,-24,-3,-3,0,0
16852.603,-2,-1,-1,9,-3,-3,1,-2
16873.768,0,0,-1,-6,1,0,1,0
16873.768,2,0,3,-2,-1,1,1,0
16874.809,0,0,-1,12,2,4,1,0
16874.809,1,-1,-1,-3,-2,0,-2,0
16897.197,-1,0,-2,0,1,0,0,0
16897.197,0,0,-1,-5,-1,-2,-2,-1
16898.224,1,0,0,-3,-1,0,1,0
16898.224,0,2,-4,3,0,1,0,0
16911.593,-2,-2,-2,3,-3,-1,-1,0
16911.593,0,-1,-3,-18,0,-4,-2,-1
16912.667,1,-1,1,17,-3,-1,-1,-2
16912.667,0,-1,1,-1,0,1,0,0
16933.943,2,0,-1,12,2,2,0,1
16933.943,-1,-1,1,-12,-3,0,-2,0
16935.024,-1,-1,-1,-4,-4,1,-2,0
16935.024,-1,1,-1,4,-1,-1,0,0
16957.492,0,0,-1,-7,-3,-3,2,-1
16957.492,0,-2,3,2,-1,0,0,-1
16957.492,2,3,0,1,-2,-2,2,-1
16957.492,0,1,-1,-2,3,0,-2,1
16970.742,-3,-3,0,-2,1,1,1,1
16970.742,-2,2,-1,0,0,0,0,-3
16972.17,-1,-3,1,-2,-1,1,-1,3
16972.17,3,1,-4,-1,-1,-1,0,-1
16994.349,3,1,-1,-1,0,-1,0,0
16994.349,0,0,-3,10,-2,-2,0,-2
16995.346,-1,1,2,-31,-2,-1,-2,-1
16995.346,-2,0,0,5,2,-1,-2,-1
17017.053,-1,-2,-4,1,-4,1,-3,0
17017.053,2,0,-1,-6,-1,-1,0,1
17018.079,-1,2,2,17,3,0,-1,-1
17018.079,0,-3,-4,7,-2,-1,2,0
17031.362,-2,-2,-1,-25,-1,1,1,-3
17031.362,-1,1,1,-4,-2,0,1,1
17032.359,1,0,0,10,-1,0,-1,0
17032.359,-2,0,1,-2,-4,-1,2,0
17054.161,0,0,0,13,4,-1,0,-1
17054.161,0,0,-3,-8,1,-1,0,0
17054.161,-1,-3,1,-3,0,0,1,-1
17054.161,-1,-2,0,0,-5,1,0,-2
17076.907,1,1,0,-3,4,-1,-1,1
17076.907,0,2,2,-1,-1,0,-3,0
17077.9,-1,-1,-1,6,2,0,2,-1
17077.9,-1,0,-5,1,0,3,-1,0
17091.676,-3,3,-4,4,-2,-1,-1,-1
17091.676,3,-3,-2,6,-1,-1,-3,1
17092.688,-2,-1,1,13,3,-1,-1,0
17092.688,0,-1,0,-35,-1,-1,-2,0
17113.51,-1,1,-3,4,-1,-4,2,-1
17113.51,2,-3,1,8,-1,1,1,0
17114.746,-1,-2,1,-11,-2,-2,-3,-1
17114.746,0,1,0,0,2,-1,0,-1
17137.613,-1,-2,-1,-2,-4,-1,-1,0
17137.613,0,1,0,6,0,3,3,2
17137.613,-1,-1,-3,1,0,2,-2,-1
17137.613,0,-1,1,6,0,-2,-1,-1
17152.035,-2,0,1,-5,-4,-2,1,0
17152.035,-1,1,-1,-4,2,-1,-1,-1
17152.035,2,0,-1,0,-2,0,0,1
17152.035,0,-1,-2,-5,0,-1,2,0
17174.295,-1,-1,2,2,-2,1,1,-1
17174.295,0,0,7,2,-1,-2,0,-1
17174.295,1,2,-6,-2,1,-2,-1,0
17174.295,1,-1,-1,17,3,-1,-2,-1
17197.413,-1,-4,-7,-18,-5,-4,-1,-2
17197.413,-2,-1,5,-21,-2,-1,-2,2
17198.425,-1,1,6,10,1,2,0,-2
17198.425,0,-1,2,8,-3,-2,1,-2
17210.939,1,0,-1,12,5,1,2,0
17210.939,0,1,0,-3,-1,-1,-1,0
17218.862,-2,-1,-1,-4,1,1,1,-2
17218.862,-1,-2,-5,3,0,2,-1,0
17233.854,-1,0,0,-7,-3,-1,-2,0
17233.854,0,-1,0,3,-2,0,-1,0
17234.93,0,-2,0,0,-5,-1,-2,0
17234.93,-2,2,0,-1,1,0,0,-1
17257.602,0,2,2,2,-2,-2,0,1
17257.602,1,-1,-1,2,0,-1,-1,-1
17257.602,0,1,-2,2,-2,-1,2,2
17257.602,1,0,1,-6,0,-2,-2,1
17271.267,0,-1,1,3,1,0,-1,-1
17271.267,-2,-1,-1,2,-1,3,0,-1
17278.809,-1,0,0,5,3,-1,-4,0
17278.809,0,0,-4,-4,-2,-1,2,1
17293.867,1,0,-1,-23,-1,1,0,1
17293.867,1,0,-2,1,-2,-2,-2,-1
17294.905,-1,0,1,2,0,1,-1,-1
17294.905,-1,0,2,10,1,-2,-1,-1
17317.525,1,-1,-4,5,2,1,0,1
17317.525,-1,-1,1,0,0,-1,-1,-1
17318.531,0,-1,-1,0,1,1,0,0
17318.531,1,2,0,2,0,1,0,0
17331.151,1,2,1,9,-2,-1,0,1
17331.151,0,-1,-4,-31,-4,-3,0,-3
17338.9,-1,-1,-3,1,-2,-2,3,0
17338.9,-2,3,-1,2,-1,2,-1,-1
17353.672,-2,-3,1,13,1,0,-1,-2
17353.672,0,0,1,8,0,0,0,-1
17354.757,1,-1,-2,-3,0,0,-1,-1
17354.757,-2,-3,-1,-1,-1,-2,1,-1
17377.131,0,-2,0,-5,3,0,1,1
17377.131,-1,3,0,-8,-1,-3,-1,-1
17378.181,-1,0,2,-1,-2,-1,1,0
17378.181,-1,-1,0,-5,1,-2,1,-1
17390.866,0,-3,-6,2,-2,-1,-2,1
17390.866,0,1,2,7,-1,0,-3,-1
17398.379,0,0,1,3,3,-1,0,1
17398.379,0,-1,-4,31,-1,4,-1,-1
17413.478,-3,-1,1,-58,-5,-2,1,-2
17413.478,1,-1,-1,-3,0,0,2,-1
17421.35,1,-2,-1,-2,-4,-2,-1,-1
17421.35,-1,1,5,12,2,-2,-1,1
17437.231,2,-1,-7,8,0,2,-1,-1
17437.231,-2,0,-4,-5,-3,-1,-3,-1
17438.336,-1,0,4,-1,-1,-1,-2,-1
17438.336,-1,-1,0,-11,1,-1,1,0
17450.988,2,4,7,16,-1,-1,0,0
17450.988,1,-1,7,3,2,-1,1,-1
17459.307,1,-1,2,12,2,1,1,0
17459.307,-2,-6,-23,-30,-8,-3,-2,-2
17474.543,-1,-3,-1,-5,-2,-4,-3,-2
17474.543,0,2,5,15,2,1,-1,1
17475.54,0,2,9,13,-3,0,-1,0
17475.54,0,-2,2,-23,0,-1,0,0
17496.969,-2,0,-5,1,-2,-1,-1,0
17496.969,0,-4,-1,3,-2,-1,-1,-1
17498.419,-2,-1,-4,-7,-5,-1,-2,-2
17498.419,-2,0,2,7,2,-2,1,0
17511.244,-1,-2,-6,-2,1,0,-1,-2
17511.244,-3,1,2,-1,6,2,1,2
17519.05,2,-1,-5,-8,-2,0,1,1
17519.05,0,-1,0,-1,-1,0,-1,0
17533.484,-2,1,6,11,1,0,0,0
17533.484,0,-3,-2,4,1,0,0,-1
17534.72,-2,-1,-3,-11,-1,-1,-1,-1
17534.72,1,2,2,-2,-1,1,1,-1
17557.447,-1,0,2,6,3,-1,-1,-1
17557.447,1,-1,-3,0,1,1,-3,0
17558.457,-1,0,-3,-5,-3,-4,-1,1
17558.457,-1,-1,2,0,-1,0,0,1
17580.24,-1,-1,2,7,-1,1,3,1
17580.24,0,0,-4,-1,0,-3,-1,-1
17580.24,0,-1,-2,0,2,1,0,2
17580.24,-1,-3,-4,-21,-2,-1,1,0
17593.73,-1,-3,-1,0,-2,-1,0,-1
17593.73,0,0,3,2,1,1,-1,-1
17594.75,1,1,-2,-1,-1,0,1,0
17594.75,-3,-1,-5,2,-2,1,-2,1
17616.604,1,-1,3,4,1,-1,0,-1
17616.604,0,0,-5,-12,-3,-2,-1,0
17617.607,-1,2,2,2,0,0,-2,-2
17617.607,0,0,-1,10,3,0,0,-1
17639.665,-1,2,5,4,0,-2,-1,-1
17639.665,2,1,0,5,-5,-3,2,2
17640.715,1,-1,-3,-9,3,3,0,-1
17640.715,1,0,4,8,-2,-3,0,0
17654.112,0,-2,-2,-11,2,0,-1,0
17654.112,-1,-1,1,6,0,-1,-1,1
17655.142,-2,-1,-1,5,0,-1,-2,-1
17655.142,1,2,0,-3,-2,-1,1,-1
17685.091,-1,-2,-2,4,1,-1,0,-1
17685.091,-2,2,3,-6,-2,0,-1,0
17685.091,-3,-2,0,-7,0,1,-1,0
17685.091,0,0,2,2,3,1,1,-1
17699.58,1,1,-1,4,-2,1,-1,0
17699.58,-1,-3,-2,-5,-3,-1,0,-1
17700.579,0,-1,1,-1,-3,-1,0,-2
17700.579,-1,1,7,3,2,0,2,-2
17714.057,-1,0,-8,-3,-2,1,0,1
17714.057,0,0,0,-5,-2,0,0,-1
17715.065,-1,0,3,1,1,-1,-2,0
17715.065,-1,-3,-5,0,-2,-1,-1,-2
17736.792,-2,-6,-11,-7,-1,-2,-1,-1
17736.792,0,2,10,9,2,2,-2,0
17737.789,0,-2,-1,0,-1,0,1,0
17737.789,-1,2,4,7,1,-2,-3,0
17759.415,1,2,0,-10,-1,-2,-1,-1
17759.415,1,-2,0,6,-2,-3,0,1
17760.471,0,1,-8,-4,2,0,1,0
17760.471,0,2,2,1,-2,0,-1,0
17773.508,-2,1,3,10,2,2,0,0
17773.508,-2,-3,-4,-1,1,-2,-2,-1
17774.633,0,1,6,-7,5,2,1,1
17774.633,0,-2,-2,-1,-1,-1,1,0
17796.947,-3,-2,3,13,1,-1,0,-1
17796.947,1,0,2,-19,-3,1,1,-1
17797.955,-1,-2,0,4,-1,-2,1,-2
17797.955,0,-1,-9,-13,-1,-2,-1,2
17819.274,-1,-1,4,2,-3,-1,-1,1
17819.274,-2,-1,1,9,2,1,-1,-2
17820.371,2,-3,-4,3,-1,-2,-1,0
17820.371,-2,-2,-1,-6,-1,0,2,-2
17834.214,1,-1,4,3,0,0,-2,-1
17834.214,0,1,-2,3,0,1,1,-1
17834.214,-1,-1,-5,-6,-2,-2,-3,-1
17834.214,0,0,1,1,-3,0,-1,1
17856.801,-1,1,1,-2,2,1,1,-1
17856.801,0,-2,0,-1,1,0,-4,-2
17857.828,-3,0,-2,2,-1,-3,0,0
17857.828,0,-2,-3,-3,-1,-2,-2,-1
17887.682,0,0,0,0,1,-2,1,1
17887.682,1,1,-2,5,-1,-1,-1,1
17887.682,-1,1,3,-1,-2,0,1,0
17887.682,-2,-1,-4,-11,-1,-2,-3,0
17894.208,1,2,1,1,0,-1,0,-1
17894.208,0,1,3,6,0,-1,-1,1
17895.237,1,0,0,9,3,1,-1,0
17895.237,-3,-2,-13,-13,-3,0,1,1
17916.866,1,0,2,-2,-1,-1,0,0
17916.866,-1,0,-3,-1,-1,0,-1,1
17917.888,1,0,3,-1,-5,-1,0,-1
17917.888,0,1,2,2,5,0,0,1
17939.867,-2,0,-2,-3,-1,-1,1,0
17939.867,-1,-2,0,-1,2,1,1,0
17939.867,0,-2,-1,-1,-4,-2,-2,-2
17939.867,-1,1,-1,0,-2,3,-2,0
17953.639,-1,-2,-4,11,-1,1,-2,0
17953.639,-1,0,1,-21,-4,-4,-1,-1
17954.741,-1,0,-6,-1,2,2,0,-1
17954.741,0,-1,3,9,0,0,1,-2
17976.901,-1,0,-1,-8,0,-2,-2,-3
17976.901,0,0,-2,6,-2,-1,-1,0
17978.355,-1,0,1,13,-2,-3,-1,0
17978.355,-1,0,-1,-20,-2,0,2,-1
18000.244,0,-1,5,3,1,-1,-1,0
18000.244,1,-1,2,6,-1,0,0,0
18000.244,-1,1,-5,-6,1,-1,-1,0
18000.244,-2,-2,-3,6,0,0,-1,0
18014.122,0,-1,2,-4,-2,1,0,1
18014.122,1,-2,-1,-4,-1,-2,-2,-2
18015.119,0,-3,-1,7,-2,-1,-3,2
18015.119,0,1,0,-19,-1,-1,0,0
18037.786,0,-2,-1,-3,1,-1,2,0
18037.786,0,3,-1,4,-1,-1,0,-2
18038.825,1,3,5,1,2,1,3,-1
18038.825,1,-1,-2,7,-4,0,1,-1
18059.865,-2,-4,-12,-14,-3,-2,-4,-1
18059.865,-1,0,2,4,1,2,0,-1
18060.875,-1,-3,-2,-7,0,1,1,0
18060.875,0,1,3,9,2,0,-1,2
18082.508,0,-2,2,4,-2,-1,1,0
18082.508,-1,0,-2,1,0,0,1,2
18083.519,0,-1,-3,-8,1,-1,-2,1
18083.519,-1,2,2,7,-1,-1,1,-1
18097.658,0,-1,2,0,0,0,-2,0
18097.658,1,-1,2,1,1,0,-2,0
18097.658,-2,-2,-2,-3,0,-3,-2,-1
18097.658,1,1,4,6,1,1,0,1
18119.498,-1,1,0,-1,-2,-2,-1,0
18119.498,0,-1,-2,11,1,0,0,-1
18121.82,0,-1,0,-26,-3,3,2,0
18121.82,-2,-1,-4,5,-1,0,-1,0
18133.599,1,0,3,1,1,0,0,-1
18133.599,-1,-2,0,0,0,-1,0,0
18142.423,1,-2,-3,6,1,0,1,0
18142.423,0,-1,0,1,-2,-3,1,-3
18164.814,1,1,4,0,2,0,1,0
18164.814,-1,2,0,4,5,2,-2,1
18171.212,0,1,0,2,-3,-2,-3,1
18171.212,-2,-2,-2,-8,-1,-2,0,0
18179.262,-2,1,0,6,0,1,-1,0
18179.262,-1,0,0,-5,-1,0,0,-2
18180.709,-2,1,1,0,0,1,0,-2
18180.709,1,0,2,2,1,1,-1,-2
18192.808,-1,0,1,12,-1,0,-1,-1
18192.808,-1,-3,-3,-18,-4,-2,0,0
18202.726,0,1,-1,3,0,0,0,-2
18202.726,-2,-3,-1,-1,0,-2,1,-1
18217.033,0,0,-1,5,3,2,0,-2
18217.033,2,-1,1,9,-4,0,-1,0
18219.026,-1,2,-2,0,5,2,1,-1
18219.026,0,0,-3,-2,-3,-1,-4,1
18240.048,1,0,2,-2,-2,-1,-1,0
18240.048,-1,-2,1,-1,-3,-3,-1,0
18241.069,-1,-1,-2,0,-1,-1,1,0
18241.069,-3,-3,-5,-5,1,0,-1,-1
18262.489,0,1,1,-3,-1,0,0,2
18262.489,0,1,-1,-12,-2,1,-1,0
18263.508,0,0,1,1,-1,-1,-1,-1
18263.508,1,1,3,5,3,1,0,0
18277.208,1,0,0,-5,-3,-3,-3,-1
18277.208,0,0,0,4,3,1,1,-2
18279.266,-1,-1,3,3,1,0,0,-1
18279.266,-1,-1,-4,-3,0,0,0,0
18307.727,-1,-3,-2,-8,-5,0,-2,-1
18307.727,-1,0,-2,0,-2,0,-4,0
18308.739,-1,-2,-5,1,2,0,0,1
18308.739,-1,-1,1,0,-2,-1,0,-1
18313.22,0,1,1,0,1,2,0,1
18313.22,0,-1,0,-4,-1,-1,0,0
18327.831,-1,1,-1,-6,-3,-1,-2,-2
18327.831,0,-3,-2,15,-1,-2,0,-2
18337.577,0,0,-1,-22,0,0,4,-1
18337.577,0,1,2,-2,-1,0,-1,-1
18338.599,1,2,1,3,-1,0,-2,2
18338.599,0,0,-2,0,3,-1,0,0
18359.324,-2,0,-3,1,-2,-2,-2,-1
18359.324,0,-3,4,2,1,0,0,-2
18360.838,0,-1,-1,-1,0,2,1,0
18360.838,-2,2,2,-2,3,2,0,1
18373.185,0,-1,0,4,-1,0,-2,1
18373.185,-1,-1,-5,-8,0,-3,-1,1
18389.642,-2,-1,3,5,-1,-2,-1,0
18389.642,1,2,-4,-2,0,-2,-1,-1
18397.621,-1,-1,-5,1,-1,1,-1,-1
18397.621,0,0,2,2,1,1,0,0
18398.92,-1,-2,-1,-3,-2,-2,0,0
18398.92,1,1,2,1,-2,-1,-1,-2
18420.087,2,1,2,-1,0,2,0,-2
18420.087,0,1,-5,9,0,1,1,0
18421.105,0,-1,-3,-2,-1,-1,-1,1
18421.105,-1,0,2,-2,0,-1,2,1
18433.294,-1,-1,2,6,4,-1,0,0
18433.294,0,-1,-1,2,-3,0,-3,1
18441.886,-1,-3,-4,-4,-4,-1,0,-2
18441.886,0,1,2,0,-1,0,0,-1
18456.851,1,0,1,-1,-1,-2,2,0
18456.851,-1,1,-4,-1,-1,-2,-2,-1
18463.742,-1,-1,-3,-4,-5,-2,-1,-1
18463.742,0,0,0,-1,-1,0,-2,0
18479.875,-1,-2,1,3,2,1,0,1
18479.875,-2,-4,0,-1,-2,-2,-2,-2
18480.928,1,2,-5,2,1,-1,1,-2
18480.928,-2,0,-1,1,3,0,0,-1
18502.787,1,1,5,6,-1,-1,1,0
18502.787,1,0,-6,-12,-2,-2,1,-1
18503.903,-1,-3,2,2,-2,0,0,-2
18503.903,0,-1,-3,-4,-2,-1,0,1
18517.462,0,0,3,4,-2,-1,-2,0
18517.462,1,2,0,5,6,2,1,1
18519.554,0,1,0,-4,-2,0,3,-1
18519.554,2,0,2,1,-1,0,-1,0
18539.327,0,-1,-4,-1,-7,-1,0,0
18539.327,0,-1,4,4,-2,1,0,-1
18541.478,-2,0,-1,2,3,0,-1,1
18541.478,0,-1,-3,-4,-1,0,0,-1
18562.687,-2,1,-1,0,-1,-1,-2,2
18562.687,-1,-1,0,-2,-1,-1,0,-1
18564.19,0,-2,0,11,0,0,1,-1
18564.19,-4,-1,-2,-8,-3,-1,-2,0
18576.791,0,0,-3,2,0,0,0,0
18576.791,-3,0,2,-2,-6,-2,-3,-1
18578.785,0,0,-2,4,3,1,-1,0
18578.785,0,-4,1,3,7,3,1,0
18599.218,-1,0,0,-5,1,1,-1,0
18599.218,0,0,2,4,1,-2,-1,-1
18600.495,0,-1,-1,-7,-7,-1,-1,-1
18600.495,0,2,-4,-3,-1,-3,-2,-2
18622.03,1,0,-1,-2,-1,0,0,-2
18622.03,-1,-2,1,2,-1,1,0,1
18624.186,-3,-1,1,-2,0,0,-1,0
18624.186,-1,-1,-1,-4,-2,-1,1,0
18636.096,1,0,2,12,-1,0,-3,-1
18636.096,0,1,1,-19,3,1,1,0
18643.822,0,0,-1,0,1,-1,-1,-1
18643.822,-2,-3,-5,-4,-1,1,-1,0
18660.271,2,0,1,0,3,-2,0,0
18660.271,-1,0,-1,4,0,0,0,-3
18661.284,-1,0,3,2,-4,0,-1,0
18661.284,-1,-1,-1,-4,0,-1,0,-1
18681.917,-3,-2,0,-5,-2,0,-1,-1
18681.917,0,1,-3,2,-3,1,2,0
18684.259,-1,-2,-2,-5,3,1,-1,0
18684.259,-2,0,-1,12,-4,-5,-2,-1
18697.001,-1,0,0,-20,0,0,-1,-1
18697.001,0,-3,1,5,3,-1,0,0
18703.641,-1,-2,-1,4,-2,-1,2,-1
18703.641,-1,-1,-4,-4,1,1,1,0
18719.24,0,0,5,2,-1,-1,-1,-1
18719.24,-1,2,2,6,-4,-1,1,1
18721.268,0,-1,-13,-11,2,-1,-1,0
18721.268,1,-1,3,-5,-1,1,0,0
18742.401,0,-1,2,5,0,1,0,-1
18742.401,2,0,3,4,3,0,-3,-1
18743.443,1,0,0,8,-1,1,1,0
18743.443,-2,1,0,0,-1,-2,1,-3
18756.283,0,-2,-2,4,-4,0,-1,-2
18756.283,0,-2,0,-16,1,-1,1,0
18764.185,-1,-1,-5,-5,2,-1,-4,-1
18764.185,0,-1,0,2,-2,-1,-1,0
18779.898,0,0,1,0,1,2,0,0
18779.898,-1,-1,0,6,-1,-1,0,-1
18780.91,-2,1,2,4,-1,-1,-1,0
18780.91,-1,-3,0,-3,-1,-1,-1,0
18801.396,0,-1,-1,-5,-3,-1,-1,-2
18801.396,0,-2,1,-3,4,1,-2,-1
18810.096,-1,-1,2,-1,0,0,1,-1
18810.096,-2,1,1,4,-3,1,0,1
18816.179,-1,0,0,4,5,1,0,1
18816.179,-1,1,-4,-9,-1,2,1,0
18822.869,1,-3,3,7,-3,-3,-1,-3
18822.869,0,0,0,-14,1,0,-1,0
18840.18,-1,0,-2,-2,-4,-1,-4,2
18840.18,-1,-2,-1,4,3,1,-2,2
18841.188,0,1,0,4,-1,0,0,1
18841.188,0,0,2,2,-1,-2,-2,0
18869.761,-1,0,-2,-3,3,0,-1,0
18869.761,-1,-2,-1,-1,-6,-3,1,-1
18870.773,-2,1,0,-7,-1,0,0,-1
18870.773,-2,0,4,2,-2,0,0,-2
18876.541,-1,0,-2,-8,-1,-3,0,-2
18876.541,1,-1,2,10,-3,1,-2,-1
18883.008,-1,2,-6,-11,2,-1,1,0
18883.008,-2,-3,0,1,-2,0,-1,0
18899.393,1,-1,2,5,-1,-3,-1,-1
18899.393,0,1,-1,4,-1,0,0,-1
18901.465,1,-1,3,-1,2,-1,2,0
18901.465,0,0,-4,0,-1,0,1,0
18922.235,-1,1,-1,-1,-2,-2,1,-1
18922.235,-1,1,-2,1,-1,0,-1,2
18924.296,0,-2,-1,0,-1,1,-1,-1
18924.296,0,0,-2,1,2,1,1,0
18936.359,2,-2,2,-3,-3,0,1,-1
18936.359,0,0,0,4,0,-3,0,0
18943.709,0,-2,1,-13,0,-1,0,1
18943.709,1,1,2,2,-2,-2,-1,0
18959.565,0,-2,3,5,-1,0,1,0
18959.565,-1,1,-11,-12,-4,1,-1,-1
18961.644,0,-4,5,8,-2,1,0,0
18961.644,-1,-1,-5,-8,-4,-3,0,-2
18982.591,1,0,-2,-2,5,1,0,1
18982.591,-1,-2,-3,8,0,-3,-2,-1
18983.67,0,-1,-1,3,1,-2,-1,0
18983.67,0,0,-1,-1,0,0,-1,0
18996.247,-1,-1,1,2,-2,0,-1,-2
18996.247,-2,-2,-2,-2,0,0,2,-1
19004.862,-2,-1,-1,1,-3,-1,-1,0
19004.862,1,-1,2,4,1,-2,-1,-3
19019.525,-2,0,-1,-3,-3,-2,0,1
19019.525,-1,0,2,11,1,2,-1,0
19021.678,-1,3,-3,-24,2,0,-1,0
19021.678,-2,1,0,4,0,-2,0,0
19042.528,0,-4,-2,-3,-3,-2,0,1
19042.528,0,1,0,-2,-4,0,0,0
19043.525,0,-2,0,12,-2,-1,0,1
19043.525,0,0,0,-3,4,1,0,-2
19056.327,0,-6,6,-1,-3,1,0,-1
19056.327,0,0,-4,-4,3,-2,-2,0
19064.265,0,1,1,4,-1,3,0,-1
19064.265,-1,-1,-1,-3,-1,0,1,0
19094.502,-2,1,1,5,2,-1,0,0
19094.502,-1,0,1,-3,-4,-1,0,-1
19096.787,0,-1,-3,-1,1,0,2,-2
19096.787,0,1,1,5,1,-1,0,-1
19102.294,0,-1,3,-1,1,1,0,1
19102.294,3,1,-2,-7,-2,-1,-3,1
19103.307,0,1,-4,-1,-4,-1,0,-2
19103.307,-2,-1,1,0,-2,0,0,0
19115.71,-1,2,-4,13,0,-1,-1,-1
19115.71,-3,-2,4,-23,1,1,2,1
19125.21,-1,0,2,5,-2,-2,1,2
19125.21,1,-2,-4,2,1,1,-1,-1
19139.427,1,-1,-1,-3,0,0,-3,2
19139.427,-2,-2,2,10,1,-2,1,-1
19141.454,-1,-2,-1,-7,-3,2,0,-3
19141.454,-3,-2,-2,-2,-3,-1,2,2
19162.38,-1,1,-2,-6,0,0,-1,-1
19162.38,0,0,1,4,-1,0,-1,-1
19163.719,2,0,-1,2,0,-1,-2,1
19163.719,-2,-1,-3,3,3,-1,-1,0
19176.066,-1,2,4,-2,-2,-1,-1,-2
19176.066,-1,0,1,2,2,1,-1,-1
19190.78,-1,0,-1,3,-1,-2,-2,1
19190.78,-1,-1,2,0,0,1,0,0
19199.27,-1,-1,-1,-1,-3,-3,-2,-1
19199.27,0,-1,-1,1,2,1,1,-1
19201.28,0,-2,-2,-5,0,-1,0,0
19201.28,2,0,-2,2,-3,-1,-1,0
19222.529,-1,-1,-2,-4,0,3,-1,0
19222.529,0,1,0,2,-1,0,0,-1
19223.525,0,-2,-3,3,0,0,0,-1
19223.525,2,-1,3,-5,0,1,1,0
19236.162,2,-2,2,1,-1,-2,-3,-1
19236.162,-1,0,-3,3,-3,-1,0,-1
19244.59,1,0,-2,3,1,0,-2,0
19244.59,-2,-1,-2,-1,0,0,-2,0
19260.024,1,0,1,-3,-3,0,-1,-1
19260.024,-1,-1,-1,4,2,1,0,0
19261.054,1,-2,1,-10,2,-1,0,-3
19261.054,-1,2,2,1,-1,-1,-1,0
19281.988,-1,1,0,0,0,-2,-1,-1
19281.988,-1,-1,-2,-5,1,-2,-2,0
19296.851,-2,0,-1,6,-2,-2,-1,-1
19296.851,1,0,-2,-1,0,2,-1,0
19297.845,-3,-3,-4,-1,0,0,1,-1
19297.845,0,0,-1,3,-2,0,-1,-1
19305.15,-1,2,1,1,-1,-1,1,-1
19305.15,-3,0,-4,-3,-1,-1,-1,-2
19319.7,1,0,-1,5,2,-1,-1,2
19319.7,-1,-5,0,-2,-3,-3,0,-2
19321.767,0,-1,-3,-3,0,0,-1,-1
19321.767,0,-2,1,0,-2,-1,0,-2
19349.299,-1,1,2,1,2,-1,0,-1
19349.299,-1,-1,-1,-4,3,2,0,0
19351.44,-2,-2,0,1,-5,-2,-2,-1
19351.44,0,-2,0,1,1,-2,0,0
19364.221,1,1,-4,0,2,2,-1,-1
19364.221,-1,-1,1,3,-3,-2,1,-2
19366.636,1,1,1,-7,2,-1,0,0
19366.636,-1,0,-2,4,-2,2,-1,0
19379.904,-1,-3,-8,-15,-2,0,-1,1
19379.904,0,-1,5,4,-1,2,0,0
19380.913,0,0,-6,2,-3,-1,2,1
19380.913,0,-2,5,-3,1,-2,-3,-2
19401.905,-1,1,4,7,4,1,0,-1
19401.905,0,0,-5,-1,-2,-2,-2,-3
19404.015,-1,0,3,-1,1,1,-1,-1
19404.015,1,2,-1,2,-2,-1,0,0
19425.242,-1,-2,-2,-1,-2,0,0,-1
19425.242,-2,-1,-2,-2,-3,-1,-1,0
19426.264,-2,-1,6,2,-1,0,0,-2
19426.264,-2,0,-6,-5,3,2,1,0
19439.036,-1,0,3,0,-2,-2,-1,-2
19439.036,0,4,1,-2,0,-4,2,3
19441.75,-1,-2,-6,-4,-1,-2,-1,-3
19441.75,1,0,3,2,1,1,-1,-1
19462.779,0,0,2,9,0,0,-3,1
19462.779,1,3,-5,-24,-3,0,0,0
19464.183,0,-1,0,5,0,0,-1,1
19464.183,1,2,-1,5,1,0,0,-1
19484.44,-1,-1,-2,1,-1,-2,-2,-2
19484.44,-1,-1,-2,3,0,-2,-1,0
