pc_t_ms,emg_t_ms,emg0,emg1,emg2,emg3,emg4,emg5,emg6,emg7
0,0,-19,-111,-3,-45,-111,-111,-71,-47
0,0,-33,-54,-8,-71,64,-67,-20,-102
0,0,6,88,2,15,93,88,25,14
0,0,36,119,7,86,110,116,58,81
0,1,-6,-51,-5,-16,-57,-52,-41,-17
0,1,-23,-45,-3,-50,39,-54,-17,-68
0,5,-2,53,0,-7,68,50,7,-17
0,5,36,116,8,86,103,113,57,80
0,9,-4,-38,-4,-17,-48,-36,-31,-5
0,9,-21,-40,-5,-47,30,-49,-18,-62
0,11,-4,55,-1,-6,73,52,13,-15
0,11,32,99,8,72,79,98,45,74
0,26,-5,-33,0,-17,-41,-33,-34,-12
0,26,-22,-18,-5,-42,37,-35,-18,-66
0,35,5,59,-1,6,73,55,17,5
0,35,26,71,7,57,59,69,32,58
0,49,-10,-28,-5,-21,-28,-29,-30,-27
0,49,-11,8,-3,-24,53,-1,-3,-39
0,74,5,48,4,10,58,46,12,13
0,74,18,52,-2,36,43,49,17,39
0,77,-8,-11,-2,-21,-9,-13,-23,-29
0,77,-7,23,-4,-13,51,13,-1,-21
0,79,2,37,3,9,47,33,8,10
0,79,8,42,-1,19,30,40,8,21
0,90,-7,3,-2,-15,5,0,-14,-19
0,90,-4,22,0,-3,38,14,-2,-14
0,102,-1,29,-2,5,42,26,1,4
0,102,8,42,0,18,23,38,7,20
0,143,5,110,2,10,111,110,34,-1
0,143,42,121,12,95,124,120,69,105
0,147,-1,-82,-3,-4,-82,-82,-42,16
0,147,-36,-82,-7,-67,30,-87,-32,-80
0,148,-1,67,-2,2,69,65,15,-17
0,148,25,101,4,57,122,97,47,57
0,149,8,-34,10,25,-38,-34,-17,34
0,149,-29,-64,-11,-62,19,-76,-26,-69
0,154,-7,40,-2,-10,58,37,4,-27
0,154,26,101,1,59,116,96,49,56
0,161,7,-30,0,9,-41,-30,-23,28
0,161,-27,-53,-4,-55,12,-61,-28,-64
0,169,-7,51,0,-10,68,47,11,-20
0,169,23,85,3,60,83,82,41,61
0,185,1,-27,-2,-2,-30,-27,-22,7
0,185,-20,-25,-3,-47,42,-35,-18,-57
0,192,3,53,0,2,67,50,14,3
0,192,18,61,2,39,62,59,28,42
0,214,-5,-21,-2,-10,-18,-23,-23,-9
0,214,-13,-2,-2,-23,56,-5,-5,-37
0,216,3,40,-1,7,48,38,7,7
0,216,12,45,4,20,46,43,15,26
0,229,-5,-3,-5,-22,2,-6,-15,-14
0,229,-5,14,-1,-9,50,9,1,-19
0,230,0,31,4,9,41,29,3,3
0,230,7,41,-2,18,50,39,11,15
0,252,-1,9,0,-4,11,6,-10,-8
0,252,-4,16,0,-8,46,11,-2,-16
0,252,4,25,2,-4,40,23,6,1
0,252,8,43,2,23,46,38,13,15
0,275,-4,9,-2,-4,10,7,-15,-8
0,275,-5,16,0,-8,36,9,-1,-15
0,276,0,28,0,7,40,25,1,3
0,276,7,39,2,19,30,36,11,16
0,289,-5,9,-2,-9,13,7,-12,-16
0,289,-4,21,-3,-5,48,15,2,-14
0,289,0,29,2,5,40,27,7,9
0,289,4,32,5,13,33,30,5,13
0,313,-7,9,-3,-18,15,8,-11,-18
0,313,-2,25,0,1,48,22,4,-9
0,313,2,25,1,3,38,22,4,9
0,313,6,28,-1,8,26,28,4,9
0,334,-7,14,0,-3,19,11,-11,-18
0,334,1,30,-1,-11,44,24,4,-4
0,335,2,23,3,17,34,22,4,8
0,335,4,25,0,9,23,26,2,6
0,349,-7,17,-3,-17,22,13,-10,-18
0,349,0,31,2,7,40,24,4,-4
0,351,1,21,0,2,34,19,2,9
0,351,0,26,-4,4,21,24,0,6
0,371,-5,17,-1,-9,22,13,-10,-18
0,371,0,31,0,8,28,23,1,-3
0,379,3,22,-3,-3,32,20,1,8
0,379,2,24,1,8,24,22,-3,6
0,395,-4,17,-4,-11,22,14,-9,-20
0,395,2,32,-1,5,40,27,4,-4
0,395,3,22,1,8,35,18,3,6
0,395,1,23,-2,8,5,21,-2,6
0,409,-9,16,1,-12,20,14,-7,-18
0,409,3,39,2,2,44,29,6,-3
0,410,6,23,-3,-1,33,19,1,13
0,410,3,22,1,4,19,20,-6,4
0,432,-7,17,-2,-13,20,15,-11,-20
0,432,1,36,1,7,38,33,6,-1
0,432,3,22,3,8,35,19,0,7
0,432,3,22,-1,6,14,19,0,4
0,454,-4,18,-2,-25,23,14,-5,-18
0,454,2,42,2,7,46,33,1,1
0,462,2,23,1,6,35,19,3,9
0,462,-1,22,2,8,11,19,-2,4
0,469,-4,18,-4,-8,22,16,-7,-19
0,469,4,40,1,3,39,34,9,1
0,469,-1,23,-1,5,32,19,3,12
0,469,3,21,-1,-3,-5,19,-6,5
0,492,-8,18,0,-14,23,16,-3,-18
0,492,2,39,-1,4,33,34,3,-1
0,493,2,24,1,8,34,20,1,11
0,493,2,16,-2,-3,11,15,-5,4
0,522,-5,18,-3,-18,25,15,-8,-15
0,522,2,39,-1,11,36,35,4,0
0,523,3,23,-2,8,31,19,2,8
0,523,0,16,3,1,-3,15,-3,4
0,529,-7,18,0,-9,24,16,-7,-15
0,529,2,39,2,5,39,37,3,3
0,530,2,24,0,5,33,21,0,9
0,530,1,15,-1,5,10,12,-4,4
0,553,-4,17,-3,-16,24,15,-7,-12
0,553,3,40,-2,7,33,34,2,1
0,553,-1,23,2,11,32,20,2,10
0,553,-1,12,-1,3,-8,11,-9,4
0,574,-5,17,3,-8,25,15,-6,-12
0,574,2,42,-3,2,35,34,4,3
0,575,3,24,1,5,30,21,2,10
0,575,-1,10,-2,-1,15,9,-4,4
0,597,-8,16,-2,-7,25,15,-8,-11
0,597,4,39,-1,2,37,39,2,5
0,598,3,24,-1,2,30,20,1,9
0,598,-2,10,-2,-2,-3,10,-5,5
0,612,-6,17,2,-5,25,14,-4,-10
0,612,2,37,0,7,35,34,3,3
0,613,-1,23,-3,3,29,20,-1,9
0,613,-2,8,1,-6,11,8,-9,4
0,643,-3,17,-2,-7,25,14,-6,-9
0,643,4,38,3,8,29,31,6,5
0,643,3,22,1,7,29,20,4,8
0,643,-1,11,-2,0,1,8,-10,3
0,650,-7,17,-2,-8,26,14,-6,-9
0,650,1,40,2,2,29,33,1,4
0,656,1,23,0,2,29,20,2,10
0,656,-1,11,-3,-8,-2,9,-7,4
0,687,-6,16,0,-7,25,14,-5,-9
0,687,3,37,0,8,28,37,2,2
0,688,3,23,-2,4,29,20,-1,10
0,688,-2,11,3,-2,4,11,-7,4
0,695,-5,16,-3,-6,24,13,-4,-8
0,695,2,37,2,8,31,32,3,3
0,696,1,24,-1,1,31,21,1,7
0,696,-2,12,-2,-3,3,10,-7,4
0,709,-5,17,-2,-9,25,15,-2,-10
0,709,1,36,1,5,34,32,3,3
0,716,3,24,1,3,32,21,1,8
0,716,-2,8,-3,-2,-4,9,-10,4
0,740,-3,17,2,-9,25,15,-4,-8
0,740,0,39,1,5,25,29,2,6
0,740,0,24,-5,3,30,20,2,9
0,740,-2,8,2,1,-19,9,-8,2
0,770,-7,17,3,-10,26,14,-3,-8
0,770,4,36,-1,7,25,34,4,5
0,771,2,25,3,13,30,21,3,9
0,771,-3,2,-4,-15,-16,2,-8,2
0,772,-5,18,-3,-6,25,14,-2,-6
0,772,2,36,-2,4,29,29,4,5
0,777,2,24,2,5,29,21,2,9
0,777,-4,-8,0,-3,-1,-6,-9,1
12,799,-4,17,-6,-8,23,14,-1,-5
12,799,2,34,2,5,29,31,2,7
12,801,3,24,-4,1,28,20,2,13
12,801,-2,-9,2,-1,2,-8,-10,1
27,815,-5,17,-2,-7,25,14,-2,-4
27,815,1,33,-2,10,33,35,1,4
27,815,3,23,3,9,29,20,4,7
27,815,-3,-3,-4,-5,4,-7,-7,1
40,829,-5,17,0,-6,25,13,-2,-4
40,829,3,36,2,5,31,35,3,6
48,836,1,23,-2,5,28,20,2,10
49,836,-6,-7,-2,-9,3,-8,-10,-1
64,852,-4,17,-1,-5,24,14,-1,-2
64,852,0,31,-1,5,30,34,4,5
65,853,2,22,0,11,30,20,2,10
65,853,-3,-11,0,-5,7,-11,-11,0
94,882,-1,17,1,-6,26,14,0,-2
94,882,0,33,1,7,30,34,3,5
95,883,4,22,1,3,30,19,2,6
95,883,-2,-3,-2,-11,4,-7,-10,1
100,888,-5,17,-1,-4,23,15,-1,-3
100,888,2,32,0,5,31,34,0,9
109,896,0,21,0,9,30,20,1,9
109,896,-3,-9,-4,-10,14,-11,-8,-1
124,912,-5,17,0,-5,33,13,2,-2
124,912,3,31,2,4,30,31,1,9
125,912,3,21,0,4,30,19,5,8
125,912,-5,-2,1,-8,7,-7,-9,0
147,935,-1,17,-4,-3,34,15,0,-1
147,935,2,29,1,2,31,25,3,6
147,935,1,21,-1,6,31,19,4,7
147,935,-3,-7,3,-1,5,-9,-9,-2
160,948,-5,17,1,-6,34,14,2,-2
160,948,1,31,-4,6,29,32,4,8
168,956,1,21,1,13,33,18,2,8
168,956,-3,-4,-3,-8,14,-2,-9,-1
184,972,-3,17,-2,-2,39,14,2,-2
184,972,3,28,2,3,31,29,3,8
185,973,0,21,-1,2,32,19,3,10
185,973,-5,-5,1,-3,9,-4,-11,-1
207,994,-2,18,-1,-6,38,15,3,-2
207,994,1,32,-2,8,31,30,3,8
207,995,3,22,-1,4,34,19,5,11
208,995,-3,-6,0,-7,10,-9,-13,-5
229,1017,-6,17,-5,-3,39,15,1,-2
229,1017,3,32,2,13,29,23,3,5
231,1019,4,23,0,2,32,18,6,7
231,1019,-4,-9,0,-6,10,-9,-9,-5
243,1031,-2,17,-1,-5,36,15,5,-2
243,1031,3,31,0,6,30,29,2,8
259,1048,2,23,-2,9,34,19,3,8
259,1048,-2,-12,2,-13,13,-11,-9,-5
266,1055,-3,17,-1,1,33,15,2,-2
267,1055,0,28,0,3,28,27,3,8
268,1057,4,22,-1,7,34,19,4,11
268,1057,-5,-13,-2,-8,15,-15,-11,-9
288,1076,-1,17,1,0,30,14,2,-1
288,1076,1,30,-1,-2,29,30,2,9
297,1084,2,23,0,13,31,20,6,9
297,1084,-7,-13,0,-13,20,-14,-7,-9
303,1091,-1,16,-3,2,33,13,5,-1
303,1091,1,27,4,-3,28,30,1,6
312,1100,3,22,-2,7,31,19,4,9
312,1100,-5,-11,-3,-9,20,-19,-8,-10
334,1122,1,16,1,-1,33,13,1,-2
334,1122,3,29,0,4,27,29,2,9
336,1123,4,23,-1,5,32,19,2,9
336,1123,-4,-6,1,-12,22,-15,-10,-12
349,1137,0,16,-6,-1,30,14,5,-1
349,1137,3,25,0,9,27,29,5,8
351,1139,1,22,1,11,33,18,4,7
351,1139,-4,-4,-3,-1,22,-13,-10,-10
372,1160,-2,16,5,0,29,13,6,-2
372,1160,0,25,-6,4,26,29,2,7
373,1161,3,22,3,9,32,19,3,6
373,1161,-4,-4,-3,-7,23,-9,-11,-12
385,1173,-1,17,0,2,36,13,5,-2
385,1173,2,26,-1,-1,27,25,3,9
394,1182,3,22,-3,8,30,20,5,6
394,1182,-3,-3,-2,-10,23,-8,-11,-12
417,1205,0,21,1,1,51,15,8,-1
417,1205,4,24,0,10,27,26,3,8
418,1206,3,23,1,8,32,19,5,6
418,1206,-5,1,-2,-13,26,-4,-8,-10
432,1220,-1,22,-1,0,49,15,7,-2
432,1220,3,24,-1,2,28,25,-1,10
433,1221,2,23,-2,10,32,19,5,6
433,1221,-7,-2,0,-9,23,-4,-12,-13
445,1233,1,21,-2,0,52,18,7,-2
445,1233,2,27,0,5,27,24,5,7
454,1242,3,23,4,11,32,20,3,5
454,1242,-6,2,-1,-18,26,0,-11,-14
468,1257,0,23,-1,2,61,19,6,-2
468,1257,3,26,0,6,30,23,2,10
477,1265,4,25,0,8,33,20,7,6
477,1265,-7,4,-2,-11,25,0,-10,-14
492,1280,0,21,0,-1,52,17,7,-2
492,1280,3,26,0,11,29,23,2,9
493,1281,2,26,2,11,31,22,6,5
493,1281,-6,2,-2,-14,23,0,-9,-16
506,1293,1,21,-2,-2,51,18,8,-2
506,1293,0,25,0,3,26,25,0,6
514,1302,3,26,2,15,30,22,3,6
514,1302,-5,3,-4,-15,28,0,-10,-18
530,1318,-2,21,2,9,50,17,8,-2
530,1318,3,24,-1,4,29,23,3,9
535,1324,4,26,0,5,29,23,6,7
535,1324,-5,2,-4,-10,27,1,-12,-19
552,1339,0,21,-2,3,46,18,11,-2
552,1339,2,22,0,7,25,23,7,7
553,1341,3,25,5,12,29,22,4,6
553,1341,-6,7,-1,-16,26,1,-9,-18
566,1353,5,20,-1,5,48,17,6,-2
566,1353,2,22,1,15,30,23,1,11
574,1362,4,25,-4,13,27,22,7,6
574,1362,-6,9,0,-15,29,2,-12,-21
597,1385,-2,23,1,3,45,19,6,-2
597,1385,3,21,3,9,25,23,2,13
598,1386,5,25,-1,8,30,23,5,5
598,1386,-8,11,-2,-9,26,2,-12,-21
618,1406,0,21,3,4,46,17,9,-2
618,1406,3,21,-1,-3,29,21,5,10
627,1415,2,26,1,6,28,23,5,5
627,1415,-5,13,-4,-15,27,5,-8,-21
628,1416,3,19,-2,5,45,16,7,-2
628,1416,4,21,1,8,29,21,3,10
634,1422,5,25,-3,11,28,22,2,4
634,1422,-7,14,-1,-19,23,7,-9,-22
649,1437,2,21,3,-1,57,17,10,-2
649,1437,0,21,0,5,29,20,1,9
651,1438,4,24,-1,9,29,22,4,4
651,1438,-4,16,-2,-11,26,9,-8,-23
672,1460,2,26,0,7,59,17,7,-1
672,1460,1,20,0,3,31,19,3,8
673,1462,4,24,-1,7,24,21,3,4
673,1462,-5,15,-3,-10,24,11,-10,-22
694,1482,3,29,3,3,58,25,7,-2
694,1482,3,20,-4,6,29,19,3,11
696,1484,1,25,0,5,24,22,0,4
696,1484,-8,17,0,-8,24,13,-7,-18
709,1497,1,34,0,11,54,21,9,-1
709,1497,2,21,-2,2,32,18,2,7
711,1498,2,24,-1,-5,19,21,4,3
711,1498,-8,17,-1,-12,24,13,-10,-24
732,1519,5,33,-1,7,51,26,8,-1
732,1519,2,20,1,11,30,18,1,10
733,1520,2,25,-1,11,17,21,1,3
733,1520,-7,18,-2,-14,22,14,-9,-23
754,1542,2,35,1,2,49,27,4,-1
754,1542,2,21,0,6,31,18,3,9
756,1544,4,24,1,9,27,22,0,4
756,1544,-6,18,1,-13,23,14,-11,-21
769,1558,3,32,-1,2,52,27,7,-2
769,1558,1,21,6,5,33,18,1,8
771,1559,3,24,0,9,17,22,-1,4
771,1559,-5,18,-1,-11,22,14,-7,-20
792,1581,2,33,-1,7,50,28,6,-2
792,1581,3,21,0,5,28,19,2,9
794,1582,-1,23,-2,5,20,21,-1,3
794,1582,-7,18,0,-13,25,14,-8,-18
814,1602,2,33,-3,4,48,27,6,0
814,1602,2,20,-3,6,32,18,3,11
822,1609,2,23,1,9,15,21,-1,3
822,1609,-7,18,-4,-12,23,15,-8,-21
829,1616,2,37,3,0,56,31,6,-1
829,1616,3,21,1,9,30,18,0,9
831,1619,1,22,2,7,17,20,-1,4
831,1619,-3,19,-3,-22,22,15,-9,-17
852,1639,2,33,-1,8,38,30,6,-1
852,1639,1,20,2,4,32,18,5,10
853,1641,2,21,1,7,14,21,0,4
853,1641,-6,18,-3,-10,23,15,-7,-18
874,1662,4,37,3,4,37,29,9,-2
874,1662,4,21,2,9,30,18,2,9
876,1663,1,21,0,3,15,19,-2,4
876,1663,-7,19,-3,-15,23,15,-8,-21
888,1676,2,36,-4,6,53,30,2,-1
888,1676,0,20,1,13,31,18,2,8
895,1683,3,21,2,5,18,19,-3,4
895,1683,-7,18,-2,-16,22,15,-5,-19
912,1699,3,36,1,8,38,28,5,-1
912,1699,0,21,-3,5,31,18,3,10
913,1701,0,21,-1,6,19,18,-6,3
913,1701,-5,18,1,-10,21,15,-8,-18
934,1722,3,39,-2,2,32,34,7,0
934,1722,0,22,-1,6,32,18,4,9
940,1728,1,21,0,0,7,18,-2,3
940,1728,-7,18,-2,-7,21,16,-10,-20
948,1736,3,45,1,-2,38,30,5,0
948,1736,1,22,-1,3,32,18,2,11
955,1743,0,21,0,3,3,18,-4,3
955,1743,-6,18,-5,-12,22,16,-7,-23
972,1759,2,42,7,8,39,35,5,1
972,1759,2,22,-3,5,33,19,1,8
973,1761,1,19,0,-2,5,17,-4,4
973,1761,-6,19,-1,-11,21,16,-7,-19
994,1782,2,39,-3,8,39,36,3,1
994,1782,4,23,-4,-1,32,19,2,10
996,1783,1,15,0,6,13,15,-5,3
996,1783,-6,17,0,-10,24,15,-7,-17
1008,1796,3,37,-1,4,40,33,4,1
1008,1796,2,23,0,15,31,19,0,10
1015,1803,0,15,-1,-3,10,13,-6,3
1015,1803,-6,18,-1,-11,25,16,-8,-15
1032,1819,2,42,1,11,30,35,5,1
1032,1819,3,23,2,12,30,20,1,9
1033,1821,-1,13,-3,-11,-1,11,-7,3
1033,1821,-6,18,-1,-9,24,14,-6,-14
1054,1842,1,38,1,10,35,36,3,1
1054,1842,2,23,0,-4,31,20,4,9
1056,1843,2,13,-3,0,16,12,-5,4
1056,1843,-6,17,-2,-13,25,14,-6,-11
1068,1856,0,41,3,6,32,29,4,6
1068,1856,1,24,-3,5,31,20,0,9
1075,1863,-2,11,0,3,0,9,-7,4
1075,1863,-3,16,-1,-12,25,15,-8,-12
1092,1880,3,39,-2,8,32,35,2,1
1092,1880,2,24,1,0,29,19,1,8
1093,1881,-1,10,2,-1,4,9,-7,4
1093,1881,-6,16,0,-10,26,14,-5,-10
1122,1910,2,34,1,4,28,34,3,4
1122,1910,0,22,0,8,29,20,2,9
1123,1911,-2,9,-3,-2,-4,10,-8,3
1123,1911,-5,17,2,-6,26,13,-4,-9
1128,1917,2,38,-2,0,30,33,2,1
1128,1917,3,22,0,-2,28,20,0,9
1152,1940,-2,9,-3,4,5,9,-6,4
1152,1940,-6,16,1,-14,24,12,-5,-10
1153,1940,1,37,-3,12,32,32,3,4
1153,1940,2,22,0,12,28,20,1,7
1155,1942,-2,9,-3,-5,12,7,-9,4
1155,1942,-5,16,-3,-9,26,13,-7,-8
1174,1962,2,34,1,8,29,34,5,4
1174,1962,1,23,1,6,29,19,2,10
1180,1968,-2,9,2,-2,7,8,-8,4
1180,1968,-7,15,-1,-9,24,13,-3,-9
1188,1976,3,38,-4,3,33,33,1,2
1188,1976,0,23,2,1,29,19,2,11
1195,1983,-3,11,0,-3,-7,10,-7,4
1195,1983,-5,15,-2,-11,25,13,-6,-8
1219,2007,1,35,4,10,34,33,4,2
1219,2007,1,23,2,9,31,20,1,9
1221,2009,-1,11,-2,-1,-1,10,-6,3
1221,2009,-6,16,-1,-9,25,13,-5,-8
1234,2022,0,33,0,4,27,32,4,4
1234,2022,3,23,-2,4,29,20,1,8
1235,2023,-1,3,2,-1,-1,8,-7,3
1236,2023,-4,16,-3,-7,25,13,-2,-8
1248,2035,2,38,4,6,35,34,4,6
1248,2035,1,23,-1,3,31,20,2,11
1257,2045,-1,3,1,-2,-3,5,-13,3
1257,2045,-7,16,-2,-6,27,14,-1,-8
1279,2066,0,34,-2,6,31,33,2,5
1279,2066,2,24,1,9,31,21,1,10
1281,2069,-2,3,-5,-16,-2,3,-8,3
1281,2069,-4,16,0,-9,25,14,-4,-6
1294,2082,2,36,-1,5,33,33,4,4
1294,2082,2,24,-2,0,30,21,0,7
1296,2084,-2,-9,1,1,-4,-8,-8,0
1296,2084,-4,16,-4,-6,27,14,0,-5
1308,2096,1,34,-1,1,31,32,1,7
1308,2096,2,22,-3,8,31,20,3,9
1317,2105,-3,-9,2,-2,4,-6,-9,0
1317,2105,-3,16,-3,-9,27,13,-1,-4
1339,2126,1,32,0,-3,31,38,3,8
1339,2126,3,22,-1,2,29,21,2,12
1341,2129,-3,-5,-2,-5,2,-6,-7,2
1341,2129,-5,17,-3,-2,26,14,-4,-2
1354,2142,4,33,3,8,32,32,0,5
1354,2142,2,22,1,6,31,20,2,8
1356,2143,-4,-5,-3,-4,1,-10,-7,0
1356,2143,-5,16,-3,-8,26,13,-1,-3
1377,2164,4,34,-1,9,31,30,4,5
1377,2164,3,22,0,8,31,19,0,5
1378,2167,-5,-4,1,-1,7,-9,-11,-1
1378,2167,-3,16,-1,-10,25,15,-2,-2
1399,2187,3,26,0,6,30,30,2,7
1399,2187,2,21,-1,5,29,19,2,10
1401,2188,-3,-2,0,-6,11,-4,-9,0
1401,2188,-4,17,-1,-7,27,14,1,-2
1414,2202,3,31,-1,3,31,31,1,10
1414,2202,4,20,-1,10,30,18,1,9
1416,2204,-5,-7,-1,-9,13,-9,-8,0
1416,2204,-4,17,-1,-2,32,14,2,-1
1428,2216,2,30,0,5,30,28,1,6
1428,2216,2,21,1,2,30,18,2,6
1437,2225,-4,-1,-3,-9,6,-5,-11,1
1437,2225,-3,16,2,-1,41,15,-2,-2
1452,2240,4,31,-1,-5,30,25,5,7
1452,2240,0,22,-1,7,34,18,3,8
1453,2241,-4,-7,-4,-12,10,-8,-7,-1
1453,2241,-4,16,1,-5,37,14,1,-2
1474,2262,0,28,0,6,30,26,1,8
1474,2262,1,21,0,6,33,18,4,9
1475,2264,-4,-4,-2,-6,8,-5,-9,-1
1476,2264,-2,17,5,-2,36,14,1,-1
1488,2275,1,32,-2,-7,32,29,1,7
1488,2275,0,21,-1,10,34,18,3,10
1496,2284,-2,-8,-1,-10,3,-8,-13,-4
1497,2284,-4,17,-1,-7,37,14,3,-2
1512,2299,1,28,-2,9,31,25,3,5
1512,2299,1,22,0,4,32,18,7,9
1513,2300,-3,-8,0,-9,8,-5,-12,-3
1513,2300,-2,17,-2,-2,36,14,5,-2
1534,2322,2,31,1,10,28,28,3,7
1534,2322,3,22,-1,8,33,18,5,9
1535,2323,-5,-15,1,-7,10,-10,-11,-6
1536,2323,-3,16,-3,-3,37,14,-1,-3
1556,2344,1,31,1,5,30,27,0,7
1556,2344,5,21,-2,12,33,18,3,10
1558,2346,-7,-13,-2,-9,13,-12,-10,-9
1558,2346,-1,16,4,-1,35,14,3,-2
1572,2359,1,34,-2,4,29,35,3,8
1572,2359,3,23,1,6,34,20,3,9
1573,2360,-5,-15,-2,-9,17,-13,-10,-10
1573,2360,-1,15,1,0,31,13,5,-2
1594,2382,1,29,-1,8,29,29,4,9
1594,2382,4,22,0,5,31,20,4,10
1596,2384,-5,-11,-3,-7,18,-16,-9,-10
1596,2384,-2,16,3,0,33,14,2,-1
1608,2396,4,30,-1,4,28,31,5,6
1608,2396,2,22,-1,7,31,20,6,9
1617,2405,-4,-10,-3,-12,22,-21,-8,-10
1617,2405,-3,16,-1,1,33,13,5,-1
1632,2419,2,27,2,8,27,25,-1,10
1632,2419,3,22,3,9,31,19,6,8
1633,2420,-4,-5,-1,-7,22,-15,-7,-10
1633,2420,-1,16,-2,-3,32,14,7,-2
1654,2442,2,27,1,7,27,27,4,8
1654,2442,1,22,-1,14,32,18,3,5
1656,2443,-6,-4,-3,-19,23,-11,-10,-9
1656,2443,1,16,-1,0,29,14,5,-2
1676,2465,0,25,0,3,28,30,3,7
1677,2465,3,22,1,9,32,19,4,7
1678,2466,-4,-1,-1,-5,23,-8,-8,-14
1678,2466,-1,19,-6,0,52,13,4,-1
1692,2480,4,26,3,4,27,28,3,10
1692,2480,2,23,5,8,33,20,3,5
1693,2481,-4,1,-1,-8,23,-4,-13,-9
1693,2481,-1,19,-1,1,57,13,8,-2
1714,2502,1,25,0,11,28,26,4,7
1714,2502,3,23,-2,12,35,19,5,6
1716,2504,-6,0,-2,-10,25,-3,-10,-11
1716,2504,-2,21,-1,0,60,18,7,-2
1737,2524,2,27,-3,10,28,27,3,9
1737,2524,4,24,2,4,31,20,5,6
1738,2526,-6,3,-3,-14,24,-1,-11,-12
1738,2526,2,22,-2,1,58,18,7,-2
1759,2547,1,26,4,6,29,24,3,9
1759,2547,4,24,-1,13,33,20,5,6
1761,2548,-4,3,-2,-23,27,0,-9,-15
1761,2548,0,23,-2,0,60,20,8,-2
1774,2562,2,25,1,6,29,24,4,10
1774,2562,4,25,0,8,30,20,6,6
1776,2563,-5,2,1,-11,25,-2,-12,-15
1776,2563,0,22,-3,2,55,17,7,-2
1797,2585,1,25,7,-2,29,24,-2,5
1797,2585,4,26,-4,4,31,22,8,5
1798,2586,-3,2,-5,-12,27,0,-10,-18
1798,2586,0,21,4,4,57,18,7,-2
1811,2599,3,24,-4,12,28,25,2,9
1811,2599,1,26,2,8,31,23,5,5
1818,2605,-6,4,2,-9,28,2,-6,-16
1818,2605,0,21,-2,7,50,16,7,-3
1834,2622,0,23,-3,7,30,25,2,9
1834,2622,3,26,2,14,29,23,4,6
1836,2623,-8,3,-5,-11,29,-2,-8,-20
1836,2623,2,23,3,4,43,18,6,-2
1864,2652,4,22,0,3,26,23,4,8
1864,2652,3,26,-2,8,30,24,4,7
1866,2654,-7,6,0,-10,26,0,-11,-19
1866,2654,3,20,-2,2,42,16,7,-3
1871,2659,1,21,1,10,31,23,3,8
1871,2659,4,26,-3,2,27,23,5,5
1878,2665,-5,9,-3,-14,28,-1,-12,-20
1878,2665,4,22,3,9,43,17,10,-2
1894,2682,5,22,0,4,26,23,3,8
1894,2682,6,25,2,8,29,23,7,5
1896,2683,-6,11,-3,-12,26,3,-9,-18
1896,2683,-1,20,2,2,50,17,8,-2
1924,2712,1,21,-1,8,29,20,3,9
1924,2712,5,25,-1,12,28,23,4,4
1925,2714,-9,12,0,-12,28,6,-9,-23
1926,2714,0,20,-2,2,53,16,7,-3
1931,2718,2,20,3,7,29,20,1,10
1931,2718,4,24,-1,13,25,22,0,4
1938,2726,-5,14,-2,-9,26,8,-10,-23
1938,2726,2,27,3,1,59,17,8,-1
1954,2742,0,20,-3,3,29,19,4,9
1954,2742,5,24,-1,6,25,21,1,4
1956,2743,-5,16,-1,-14,27,10,-11,-20
1956,2743,0,27,-2,5,61,23,9,-3
1976,2763,2,20,-1,13,31,19,3,11
1976,2763,2,25,2,3,29,21,1,4
1984,2772,-6,15,-3,-19,26,12,-7,-23
1984,2772,2,32,6,10,60,25,9,-2
1991,2779,3,21,-2,3,32,18,1,10
1991,2779,2,24,0,12,23,21,4,3
1998,2785,-8,17,-1,-12,24,13,-11,-21
1998,2785,3,40,-1,6,65,30,8,-2
2014,2802,2,22,-2,7,34,19,2,8
2014,2802,2,24,3,11,19,21,1,4
2015,2803,-7,18,-2,-12,26,14,-10,-25
2016,2803,3,35,0,3,50,28,3,-2
2036,2824,3,21,1,6,31,19,4,10
2037,2824,2,25,-4,6,20,22,2,3
2038,2826,-3,18,-2,-20,24,14,-7,-21
2038,2826,0,33,-1,7,49,25,7,-1
2051,2838,4,21,2,0,33,18,1,7
2051,2838,2,25,-1,10,17,22,0,4
2059,2847,-5,19,0,-12,25,15,-10,-21
2059,2847,2,33,1,6,55,28,5,-1
2074,2863,1,21,2,5,32,19,2,11
2074,2863,3,24,4,8,22,21,1,3
2075,2864,-6,18,1,-9,23,16,-8,-19
2075,2864,4,35,-3,4,45,30,7,-1
2096,2884,2,20,-1,5,32,18,4,11
2097,2884,1,25,-3,2,17,22,0,3
2098,2886,-6,18,-2,-9,24,15,-7,-18
2098,2886,2,35,-1,8,43,30,10,-1
2111,2899,1,21,2,7,30,19,2,9
2111,2899,2,23,2,7,19,22,-3,4
2119,2907,-6,19,-1,-8,25,16,-11,-20
2119,2907,3,34,0,5,47,28,7,0
2134,2922,1,20,-3,5,31,18,1,8
2134,2922,2,22,3,4,19,20,-1,4
2136,2923,-4,18,2,-14,24,15,-9,-20
2136,2923,3,33,0,5,43,27,6,-2
2156,2944,0,20,-1,9,30,18,3,9
2156,2944,2,21,1,8,21,20,-2,3
2158,2947,-6,18,3,-11,24,16,-8,-21
2158,2947,1,33,0,7,40,28,6,0
2170,2959,2,20,1,8,32,18,2,10
2170,2959,1,20,-1,9,15,19,-2,4
2179,2968,-6,19,-3,-11,24,15,-9,-18
2179,2968,2,33,1,9,40,28,2,-1
2194,2983,2,20,3,9,30,17,1,10
2194,2983,3,20,-2,-4,18,19,-2,3
2196,2984,-7,19,-1,-9,22,16,-8,-19
2196,2984,1,39,-1,5,38,27,7,-1
2216,3005,1,21,0,4,33,17,0,10
2217,3005,-1,21,-4,7,16,18,-3,4
2218,3006,-6,18,-4,-16,22,15,-7,-19
2218,3006,2,39,3,8,35,32,5,0
2230,3019,2,22,-1,6,32,18,5,10
2230,3019,0,21,3,5,10,18,-5,3
2239,3026,-4,18,-4,-13,22,16,-9,-18
2239,3026,2,40,-1,4,35,34,1,1
2262,3049,3,22,1,2,32,18,-1,7
2262,3049,2,20,1,5,4,18,-5,3
2263,3050,-7,18,-3,-12,23,15,-6,-18
2263,3050,5,43,3,13,37,35,5,1
2284,3072,2,22,-2,0,33,19,1,9
2284,3072,1,18,1,3,7,17,-6,4
2286,3074,-8,19,-1,-7,23,16,-8,-18
2286,3074,1,39,0,2,34,33,4,1
2290,3079,1,22,-2,14,30,19,2,9
2290,3079,1,17,-1,-6,-4,16,-7,3
2299,3087,-5,18,-3,-13,23,15,-7,-18
2299,3087,3,40,0,5,37,40,4,3
2314,3102,2,23,2,9,31,19,2,7
2314,3102,-2,14,-5,-9,11,14,-5,4
2316,3103,-6,17,1,-6,24,16,-6,-16
2316,3103,3,39,-2,4,35,34,2,3
2336,3125,2,23,-1,6,32,20,0,10
2336,3125,2,13,0,5,9,12,-5,4
2338,3126,-6,17,-2,-15,23,14,-8,-14
2338,3126,3,38,-2,4,37,35,3,2
2350,3139,1,23,-1,1,31,20,1,10
2350,3139,-2,13,2,5,10,11,-4,3
2365,3153,-7,17,-3,-16,25,15,-6,-12
2365,3153,2,39,2,5,31,39,3,1
2374,3162,2,23,1,6,30,21,2,6
2374,3162,0,10,-3,3,-1,9,-7,4
2375,3164,-6,17,3,-17,26,14,-4,-12
2376,3164,1,40,4,14,31,34,4,2
2396,3185,1,22,-2,8,28,19,3,8
2396,3185,-1,10,-1,-3,1,10,-7,4
2398,3186,-5,16,-3,-11,25,15,-6,-10
2398,3186,1,37,-2,2,32,32,2,4
2410,3198,1,23,0,5,29,21,1,7
2410,3198,-1,9,2,4,-5,8,-8,3
2419,3207,-7,16,-1,-4,25,14,-6,-9
2419,3207,4,36,5,4,31,34,4,2
2434,3222,2,22,-1,7,29,19,1,12
2434,3222,-3,8,-2,-3,4,9,-8,4
2436,3224,-5,16,-5,-13,24,13,-6,-10
2436,3224,2,39,-4,6,31,30,4,3
2457,3245,0,22,-1,4,29,20,1,10
2457,3245,-2,11,-1,-5,-6,8,-9,4
2458,3246,-6,17,-2,-9,24,14,-3,-8
2458,3246,3,36,0,8,31,35,4,2
2479,3267,2,23,3,3,28,20,-3,7
2479,3267,0,10,-5,-4,1,8,-9,4
2480,3268,-6,15,-2,-10,25,14,-6,-10
2481,3268,2,38,0,2,27,30,2,2
2494,3282,1,22,2,6,28,19,5,10
2494,3282,-1,10,-3,-5,9,8,-3,4
2495,3283,-5,16,-4,-13,26,14,-3,-7
2496,3283,3,38,5,15,34,32,4,1
2517,3304,1,24,0,9,30,20,1,10
2517,3304,-3,10,2,3,-6,8,-8,3
2518,3306,-6,16,-1,-9,25,12,-4,-9
2518,3306,0,38,-3,-2,30,35,5,7
2539,3327,2,23,4,7,30,20,3,10
2539,3327,-3,5,0,-5,-3,9,-6,4
2541,3329,-3,16,0,-8,25,14,-4,-8
2541,3329,1,32,-2,7,31,32,2,5
2554,3343,2,24,0,5,31,21,1,8
2554,3343,-2,-1,-2,-12,-9,2,-9,2
2556,3344,-7,17,0,-6,24,14,-5,-8
2556,3344,1,37,-3,7,31,31,0,6
2577,3365,2,23,-3,2,30,20,1,9
2577,3365,-3,-3,-1,-5,-7,-2,-8,2
2578,3366,-5,17,-2,-8,24,14,-3,-6
2578,3366,4,33,1,9,30,34,0,8
2590,3378,0,23,-4,4,30,20,4,9
2590,3378,-2,-8,1,0,1,-9,-10,2
2607,3395,-5,16,1,-4,26,14,0,-5
2607,3395,1,34,-1,7,31,34,3,6
2614,3402,4,23,2,3,28,21,2,8
2614,3402,-2,-6,1,-5,-2,-6,-10,1
2616,3404,-5,16,-1,-3,25,13,-1,-4
2616,3404,1,30,1,5,30,32,2,4
2637,3424,2,22,0,6,30,21,3,11
2637,3424,-3,-8,2,-10,8,-13,-9,0
2638,3427,-3,16,1,-5,25,13,-1,-2
2638,3427,3,35,2,1,28,32,4,8
2659,3447,3,22,-1,5,29,19,2,9
2659,3447,-5,-6,-5,-7,5,-11,-10,1
2661,3449,-3,16,-1,-6,25,14,-2,-3
2661,3449,1,31,3,2,30,30,3,5
2674,3462,2,21,-2,9,30,19,1,10
2674,3462,-4,-7,0,-5,10,-10,-8,1
2675,3463,-3,17,-2,-5,25,13,2,-3
2676,3463,3,33,0,5,29,33,5,7
2696,3484,2,21,1,9,29,19,1,8
2697,3484,-6,-4,-2,-7,7,-6,-9,-1
2698,3486,-4,17,-2,-4,31,13,0,-2
2698,3486,1,29,-2,-1,29,30,4,7
2726,3515,2,21,-3,8,31,19,3,9
2726,3515,-3,-7,-1,-6,8,-9,-11,-1
2728,3516,-2,16,0,-4,34,14,1,-2
2728,3516,1,34,-1,9,29,30,2,6
2734,3522,3,21,2,4,32,18,4,7
2734,3522,-5,-6,-2,-10,5,-4,-9,-2
2736,3523,-3,16,1,-4,35,14,2,-2
2736,3523,1,31,-3,5,30,29,2,9
2757,3545,2,21,3,7,31,18,3,8
2757,3545,-3,-3,1,-8,9,-2,-6,-1
2758,3547,-2,17,0,-4,39,14,2,-2
2758,3547,0,31,1,4,30,28,4,10
2787,3575,2,21,-3,7,32,18,3,7
2787,3575,-4,-5,-2,-5,9,-3,-14,-1
2788,3576,-3,17,-2,-3,38,15,0,-2
2788,3576,1,32,-2,9,30,27,0,7
2793,3582,0,21,-2,8,34,18,4,8
2793,3582,-3,-11,2,-6,6,-9,-10,-3
2800,3588,-3,17,-1,-2,37,15,2,-2
2800,3588,2,33,-3,4,30,29,2,6
2817,3605,3,23,-1,8,34,19,4,9
2817,3605,-3,-9,-3,-9,12,-10,-10,-6
2819,3606,-3,17,0,-2,34,14,2,-1
2819,3606,3,31,2,6,30,28,0,5
2839,3627,-1,22,0,10,34,19,3,10
2839,3627,-3,-15,-1,-7,14,-14,-7,-8
2845,3633,0,16,-2,-3,34,14,4,-2
2845,3633,0,30,2,11,29,30,2,6
2853,3642,5,23,-2,10,33,20,5,8
2853,3642,-4,-16,3,-4,18,-12,-10,-10
2867,3656,-5,17,-3,-1,33,14,6,-2
2868,3656,3,27,-3,2,29,30,4,6
2876,3665,3,22,0,5,34,19,5,10
2876,3665,-6,-15,1,-11,18,-18,-11,-11
2878,3666,-1,16,2,1,33,13,5,-2
2878,3666,3,29,-1,0,28,30,2,8
2899,3687,5,22,0,6,33,20,3,10
2899,3687,-7,-11,-5,-10,22,-16,-9,-11
2900,3688,-2,16,-4,-1,31,14,4,-2
2900,3688,2,25,2,12,29,27,3,9
2913,3701,3,22,-2,5,32,19,5,9
2913,3701,-4,-7,-3,-8,22,-17,-11,-11
2920,3708,-2,16,-5,2,32,13,5,-2
2920,3708,4,26,0,8,27,31,3,9
2944,3732,1,22,1,4,32,19,5,8
2944,3732,-5,-5,0,-8,23,-14,-12,-8
2946,3733,-3,16,-1,-1,30,13,5,-2
2946,3733,3,25,-1,9,27,27,2,7
2959,3747,3,21,2,12,32,20,2,7
2959,3747,-4,-5,-1,-12,23,-11,-11,-12
2960,3748,-1,19,1,0,47,13,4,-2
2961,3748,3,26,5,1,27,28,4,9
2982,3769,3,22,-2,5,33,20,6,7
2982,3769,-7,0,-3,-13,24,-6,-10,-13
2983,3771,-1,19,-1,0,53,13,6,-2
2983,3771,0,25,-2,10,28,26,3,7
2996,3783,5,23,0,7,33,19,5,6
2996,3783,-4,-1,-1,-11,25,-6,-9,-10
3004,3793,0,20,-1,1,63,17,6,-2
3004,3793,2,26,0,2,28,25,1,7
3019,3807,2,23,2,12,31,20,5,5
3019,3807,-6,0,-1,-18,26,-3,-9,-12
3020,3809,-1,20,0,1,59,18,10,-2
3021,3809,0,25,-2,1,29,24,3,7
3033,3822,5,23,4,16,33,20,4,6
3034,3822,-6,1,-1,-19,24,-1,-10,-13
3040,3828,1,23,1,-1,60,18,5,-2
3040,3828,1,24,1,7,29,23,3,8
3056,3844,3,24,-1,4,32,20,2,6
3056,3844,-4,4,-2,-10,28,3,-11,-14
3064,3852,-1,21,0,-2,57,19,8,-2
3064,3852,4,24,-1,10,28,24,3,8
3080,3868,1,24,1,13,31,20,7,6
3080,3868,-5,2,-4,-9,26,0,-12,-14
3093,3882,1,21,1,3,58,18,7,-2
3093,3882,2,25,2,8,29,24,5,3
3094,3882,4,26,-4,7,32,23,6,6
3094,3882,-6,4,-3,-8,27,2,-10,-21
3102,3890,0,20,0,1,48,18,8,-3
3102,3890,-1,24,1,2,28,24,1,11
3117,3904,3,26,2,14,30,23,5,6
3117,3904,-4,3,2,-6,25,1,-10,-19
3118,3906,1,21,0,5,54,17,7,-2
3118,3906,4,23,-3,3,31,24,4,9
3139,3927,5,26,-3,4,27,23,6,5
3139,3927,-6,6,-4,-11,29,0,-7,-19
3140,3928,0,20,4,2,48,17,5,-3
3140,3928,0,22,-2,5,25,23,2,9
3153,3940,4,24,-1,2,30,22,5,6
3153,3940,-6,9,-2,-16,29,0,-8,-20
3162,3949,4,21,0,8,47,17,9,-2
3162,3949,0,21,-1,7,30,22,1,12
3176,3965,1,25,1,7,28,23,5,6
3176,3965,-6,11,-1,-10,30,1,-11,-20
3178,3967,-2,21,2,1,41,17,7,-3
3178,3967,1,21,-1,10,27,22,3,8
3199,3986,3,24,-3,11,30,22,3,4
3199,3986,-8,12,-2,-17,24,5,-8,-22
3201,3989,4,20,1,5,45,17,7,-3
3201,3989,3,20,-1,5,32,21,1,9
3213,4000,3,25,-1,12,26,22,5,4
3213,4000,-6,14,-5,-16,28,7,-8,-23
3229,4017,1,24,0,8,55,16,11,-2
3229,4017,2,20,3,11,28,20,1,8
3237,4025,3,24,2,5,28,21,0,3
3237,4025,-6,15,-2,-8,24,9,-10,-18
3238,4026,1,29,0,4,61,20,8,-2
3238,4026,2,20,-1,-2,32,19,3,10
3259,4047,3,24,2,9,23,21,3,3
3259,4047,-4,15,-1,-13,28,11,-9,-23
3260,4049,3,32,-2,3,64,23,7,-1
3261,4049,5,20,1,9,29,18,0,9
3289,4077,2,24,3,8,25,22,1,4
3289,4077,-5,17,-1,-10,25,12,-7,-19
3290,4079,3,34,2,8,63,25,8,-1
3290,4079,1,21,-7,1,34,18,2,8
3296,4085,2,24,2,7,32,21,2,3
3296,4085,-7,18,-1,-11,25,13,-7,-22
3298,4086,1,36,-1,4,66,28,6,-2
3298,4086,2,21,-3,5,37,19,5,9
3319,4106,1,24,1,9,20,21,0,3
3319,4106,-8,18,-2,-13,26,14,-8,-21
3320,4109,4,34,-3,6,49,29,8,-1
3321,4109,2,21,-2,-7,29,18,4,7
3333,4120,4,25,-3,6,19,21,-2,3
3333,4120,-4,19,4,-9,27,15,-11,-21
3349,4138,3,33,-3,3,48,29,6,0
3349,4138,1,21,-1,2,34,18,4,10
3357,4144,4,24,5,12,21,21,0,4
3357,4144,-6,18,-1,-19,27,15,-11,-21
3358,4146,1,34,-3,4,47,28,4,-1
3358,4146,2,21,3,9,33,18,2,11
3379,4167,3,25,0,8,18,22,-1,4
3379,4167,-5,19,0,-7,22,15,-9,-19
3381,4169,4,30,0,4,41,29,7,-1
3381,4169,2,21,2,12,31,19,3,11
3393,4180,2,23,1,9,20,22,2,4
3393,4180,-6,18,1,-15,26,15,-11,-18
3402,4190,1,34,1,11,47,28,7,-1
3402,4190,1,20,1,6,34,19,3,6
3417,4205,0,22,-3,2,20,21,1,3
3417,4205,-7,19,-3,-16,24,15,-8,-21
3418,4206,2,36,2,9,55,29,5,-1
3418,4206,3,20,1,10,31,18,2,10
3439,4227,3,22,-1,5,24,21,-2,3
3439,4227,-5,19,-1,-11,25,16,-9,-17
3440,4229,0,36,-1,7,44,29,8,-1
3441,4229,1,20,1,-3,33,18,0,10
3453,4241,3,21,-1,3,16,20,-2,3
3453,4241,-8,19,-4,-10,26,16,-9,-18
3462,4249,3,34,1,8,40,27,6,-2
3462,4249,2,21,2,10,31,18,0,10
3484,4272,-1,21,-4,5,18,19,0,4
3484,4272,-7,19,6,-8,24,16,-8,-20
3500,4288,4,38,-1,3,49,29,8,-1
3500,4288,3,21,4,8,34,18,2,9
3500,4288,1,21,-2,3,-2,19,-6,3
3500,4288,-6,18,-4,-19,21,16,-6,-19
3502,4290,3,37,4,11,38,33,6,-1
3502,4290,1,22,-1,9,34,18,3,10
3529,4317,2,21,-1,4,16,18,-3,3
3529,4317,-9,18,-3,-10,22,15,-8,-18
3531,4319,4,39,3,3,29,30,7,2
3531,4319,3,22,-1,3,33,18,3,10
3537,4324,0,21,-1,-2,-4,18,-5,3
3537,4324,-6,18,-1,-8,23,16,-6,-17
3538,4327,3,43,1,4,41,32,4,2
3538,4327,1,23,-1,6,33,18,0,7
3559,4348,0,20,1,8,6,18,-2,3
3559,4348,-5,18,-2,-18,22,16,-6,-22
3561,4349,4,43,-1,2,38,38,4,1
3561,4349,3,23,0,11,31,19,2,11
3582,4369,2,18,0,1,-9,17,-6,4
3582,4369,-5,19,-5,-17,22,16,-6,-19
3583,4371,3,40,2,7,35,37,3,1
3583,4371,0,23,4,6,32,19,3,8
3597,4385,-1,16,-3,1,19,15,-4,4
3597,4385,-6,18,-1,-12,25,16,-6,-16
3598,4386,1,45,-1,6,37,34,3,1
3598,4386,4,24,2,5,32,20,2,8
3620,4407,-1,15,6,1,-12,13,-7,4
3620,4407,-5,18,-3,-16,22,15,-6,-16
3621,4409,2,42,-1,10,36,39,5,3
3621,4409,1,24,-1,12,29,20,2,8
3649,4437,1,13,0,1,3,11,-5,4
3649,4437,-6,17,-3,-18,24,15,-6,-12
3650,4438,3,38,2,8,30,37,3,1
3650,4438,2,24,-3,-1,31,20,0,9
3656,4445,-1,11,2,1,5,11,-6,2
3657,4445,-4,17,-1,-9,24,15,-4,-11
3658,4446,2,40,0,2,32,34,2,3
3658,4446,0,24,0,3,28,21,1,10
3678,4466,-2,10,-3,-2,1,8,-8,4
3678,4466,-5,16,2,-7,24,14,-5,-10
3679,4467,1,36,0,4,27,30,2,2
3679,4467,1,22,-1,6,28,19,-1,6
3701,4489,0,11,1,-2,10,9,-7,4
3701,4489,-4,17,-4,-8,26,15,-4,-10
3702,4490,-1,34,2,4,24,34,2,4
3702,4490,1,23,-5,0,27,20,-2,9
3716,4504,-5,9,-3,-2,9,8,-6,4
3716,4504,-8,16,0,-8,26,14,-6,-10
3716,4504,2,30,1,11,28,27,1,1
3717,4504,3,21,0,-4,26,19,2,8
3738,4527,-2,11,0,-2,2,9,-8,3
3738,4527,-5,17,0,-14,25,13,-3,-8
3739,4528,2,32,-2,7,25,29,5,2
3739,4528,1,22,0,9,26,20,-1,7
3769,4557,0,8,0,-10,5,7,-8,3
3769,4557,-1,16,0,3,25,13,3,-3
3770,4558,-1,-2,-3,0,-1,-2,-1,-3
3770,4558,-4,19,-1,-9,23,17,-5,-12
3776,4564,-2,19,1,-7,23,15,-7,0
3776,4564,3,15,1,11,28,12,6,1
3777,4565,1,-5,0,1,2,0,-1,1
3777,4565,-4,19,-6,-11,20,16,-7,-20
3807,4594,-8,19,-3,-12,31,14,-8,-6
3807,4594,14,17,3,30,27,16,30,35
3807,4595,3,-58,1,12,-66,-50,-4,0
3807,4595,-7,-23,-2,-16,-44,-37,-19,-44
3821,4609,-31,-42,-10,-76,-2,-44,-32,-84
3821,4609,18,12,6,44,20,13,55,50
3821,4610,19,-14,1,46,-77,4,6,71
3821,4610,-2,-75,-1,-6,-68,-73,-19,-8
3837,4626,-27,-73,-10,-66,-26,-75,-34,-59
3837,4626,9,0,0,26,8,5,37,22
3838,4626,14,6,4,29,-43,15,11,53
3838,4626,-1,-48,-1,6,-56,-44,-13,3
3858,4646,-21,-52,-3,-55,-16,-53,-32,-56
3858,4646,8,9,-4,12,28,11,30,12
3866,4654,13,18,2,34,-20,26,10,48
3866,4654,-5,-25,2,-6,-33,-27,-12,-1
3898,4685,-18,-40,-4,-41,-14,-42,-26,-51
3898,4685,7,15,5,22,30,15,29,12
3898,4686,9,14,-2,25,-10,21,3,42
3899,4686,-4,-23,-5,-12,-28,-24,-9,0
3900,4688,-15,-29,0,-30,-6,-30,-15,-36
3900,4688,6,12,2,13,20,13,18,12
3903,4692,8,14,5,13,-3,19,2,26
3903,4692,-3,-13,0,-5,-18,-16,-6,-5
3927,4714,-7,-23,-3,-17,-8,-21,-10,-23
3927,4714,3,6,-2,0,8,9,12,9
3927,4715,3,7,-2,8,5,12,2,16
3927,4715,-1,-12,2,2,-9,-8,-3,-1
3941,4729,-7,-22,-1,-13,-8,-19,-7,-19
3941,4729,-2,3,-1,7,9,6,8,1
3941,4729,4,9,1,11,2,11,1,13
3942,4729,1,-5,1,-5,-8,-4,-5,3
3956,4744,-6,-14,0,-14,0,-18,-6,-13
3956,4744,0,0,-1,3,10,0,6,-1
3957,4744,3,9,0,5,-5,7,3,13
3957,4744,0,-3,0,3,-10,-5,-4,2
3978,4766,-4,-16,1,-12,-13,-15,-10,-13
3978,4766,0,2,1,11,14,2,7,1
3979,4767,2,9,-3,0,-5,6,0,9
3979,4767,0,-4,-3,-5,-3,-1,-1,-3
4001,4789,-3,-12,1,-10,-8,-12,-8,-8
4001,4789,2,-1,-2,7,10,0,2,0
4008,4796,0,4,-1,-3,-5,4,2,6
4008,4796,2,3,-1,0,3,0,-1,2
4016,4804,-2,-7,-2,-8,-4,-9,-2,-4
4016,4804,0,1,2,2,8,-2,-1,-3
4016,4805,0,2,1,5,-1,3,2,3
4016,4805,1,2,0,2,7,3,0,1
4038,4826,-4,-8,-4,-19,-10,-9,-4,-4
4038,4826,0,-2,2,4,1,-2,-2,-2
4039,4827,1,5,-1,-1,3,4,1,1
4039,4827,-3,6,-2,2,0,0,0,2
4061,4848,-4,-7,-1,-2,-12,-2,-4,-5
4061,4848,0,-1,0,-1,7,-7,0,-2
4062,4849,0,2,-1,2,-1,6,-1,2
4062,4849,1,2,-1,1,2,6,-2,3
4084,4872,-3,-7,-3,1,-10,-11,-3,-2
4084,4872,-1,-2,1,-4,0,-2,2,-3
4085,4873,1,0,0,2,0,1,2,7
4085,4873,-1,5,-1,-2,2,5,0,1
4098,4887,0,-11,-1,-2,-17,-10,-4,-5
4098,4887,2,-5,0,-1,-9,1,0,-2
4099,4887,-1,4,-2,2,6,2,2,-1
4099,4887,2,4,-1,-4,6,5,-2,0
4122,4910,-2,-13,0,5,-11,-14,-1,0
4122,4910,-2,-7,-1,-4,-7,-9,-2,-6
4123,4911,-6,-79,1,-18,-53,-78,-11,-34
4123,4911,4,46,2,21,57,46,23,20
4135,4924,18,13,3,43,-52,25,10,76
4135,4924,-27,-13,-9,-69,-11,-19,-52,-67
4143,4931,-6,79,-2,-26,81,69,6,-31
4143,4931,7,33,6,27,46,34,22,31
4158,4946,17,1,1,33,-39,4,11,61
4158,4946,-24,-10,-2,-46,-23,-9,-41,-34
4159,4947,-10,71,-2,-18,62,59,-2,-36
4159,4947,7,45,0,22,63,42,24,28
4181,4969,17,-1,3,35,-27,9,10,60
4181,4969,-19,-26,-4,-43,-19,-26,-33,-30
4196,4984,-9,60,-1,-17,63,47,-3,-37
4196,4984,12,56,1,27,74,54,28,38
4198,4986,11,-27,4,36,-37,-19,-2,46
4198,4986,-19,-19,-3,-44,-9,-21,-32,-36
4203,4991,-8,58,-2,-12,64,54,2,-23
4203,4991,12,45,1,24,51,46,25,39
4218,5006,6,-36,2,14,-23,-28,-11,20
4218,5006,-15,-3,2,-33,9,-7,-22,-33
4219,5007,2,59,-2,-1,58,51,10,-4
4219,5007,12,29,2,24,38,28,16,31
4241,5029,-1,-40,-1,0,-7,-35,-14,4
4241,5029,-11,9,-4,-21,22,6,-7,-17
4242,5029,2,42,-3,-9,39,42,5,4
4242,5029,7,26,0,19,35,24,8,19
4255,5043,2,-22,1,-3,6,-33,-6,2
4255,5043,-7,8,-4,-12,28,7,-4,-10
4263,5051,1,35,5,5,34,33,4,1
4263,5051,3,27,0,13,40,25,12,15
4278,5066,-2,-18,0,-2,13,-23,-9,0
4278,5066,-7,7,1,-9,37,2,-3,-9
4280,5067,-1,34,-1,1,35,37,1,2
4280,5067,7,31,2,12,43,28,10,18
4301,5089,-4,-14,-1,-4,11,-21,-12,-2
4301,5089,-7,11,-3,-15,43,8,0,-11
4308,5096,0,35,6,10,36,33,4,1
4308,5096,7,27,-1,17,37,25,13,16
4315,5103,-4,-13,-1,-6,13,-18,-8,-8
4315,5103,-5,15,-4,-9,44,10,0,-8
4323,5111,2,33,3,15,35,35,4,6
4323,5111,4,24,-3,-5,33,21,8,12
4340,5128,-4,-8,-5,-8,19,-14,-12,-13
4340,5128,-3,19,0,-6,52,14,3,-6
4341,5128,1,29,-1,7,29,29,6,5
4341,5128,4,23,-1,12,32,20,3,9
4361,5149,-3,-1,1,-13,20,-4,-9,-13
4361,5149,-1,18,-1,0,50,15,6,-4
4361,5150,1,25,0,0,31,26,2,4
4361,5150,4,24,2,16,34,21,7,7
4375,5164,-4,4,0,-7,25,1,-7,-5
4375,5164,-1,16,-3,2,38,15,5,-4
4384,5171,1,19,2,0,27,14,1,0
4384,5171,-1,23,1,0,29,19,1,2
4398,5186,-1,10,-1,5,20,5,0,-3
4398,5186,5,16,-1,6,16,13,6,-5
4399,5187,-2,6,-7,-2,28,-4,-5,-4
4399,5187,-4,17,0,-7,23,14,-3,-16
4421,5209,1,23,-1,1,25,20,5,3
4421,5209,9,17,4,14,-6,15,9,-2
4422,5210,-3,-56,1,-6,-23,-62,-9,-16
4422,5210,-14,3,-2,-31,1,0,-30,-55
4435,5223,-5,86,-4,-14,63,91,17,-24
4435,5223,21,24,4,56,-6,20,24,32
4443,5231,6,-52,-3,8,-46,-51,-7,17
4443,5231,-15,-35,0,-38,-60,-37,-34,-45
4460,5248,-10,54,-6,-23,34,47,7,-43
4460,5248,20,10,4,46,-30,9,23,35
4461,5249,5,-46,-5,8,-33,-45,1,10
4461,5249,-12,-7,-4,-16,-22,-8,-24,-23
4481,5269,-11,15,0,-25,15,10,-3,-48
4481,5269,21,38,4,42,43,42,35,48
4481,5270,6,-34,-2,21,-46,-26,-2,37
4481,5270,-12,-28,0,-23,-35,-27,-25,-25
4512,5299,-9,44,1,-16,55,38,6,-28
4512,5299,13,-1,1,32,11,0,21,21
4512,5300,0,-50,1,-1,-36,-44,-9,4
4512,5300,-6,2,-5,-14,9,1,-11,-13
4519,5307,-1,23,1,-2,2,26,-2,1
4519,5307,3,0,1,12,-2,-4,5,-3
4526,5314,2,16,-3,4,11,19,0,12
4526,5314,-11,-24,-6,-30,-35,-27,-19,-33
4541,5329,-9,-21,-1,-22,18,-21,0,-45
4541,5329,13,46,1,30,55,44,18,32
4541,5329,3,-5,1,15,-15,0,-2,19
4541,5329,-3,-13,2,-10,-20,-16,-11,-12
4564,5352,-7,-15,-4,-19,14,-15,-4,-29
4564,5352,7,26,2,20,39,27,13,18
4565,5352,3,6,1,-1,2,5,-3,13
4565,5352,-1,-10,-2,0,-20,-10,-8,-1
4578,5366,-6,-19,3,-12,9,-21,-3,-25
4578,5366,5,24,-1,10,31,24,11,8
4579,5367,5,13,3,12,5,12,1,22
4579,5367,-1,-13,-2,-1,-20,-9,-8,-4
4601,5389,-6,-19,-4,-26,-4,-25,-2,-27
4601,5389,0,30,-1,19,32,28,12,14
4602,5389,2,13,-2,5,6,14,1,17
4602,5389,-4,-15,-1,-1,-20,-17,-12,-9
4624,5412,-4,-14,3,-8,1,-17,-5,-21
4624,5412,5,24,0,10,25,28,7,17
4625,5413,2,1,3,6,-5,3,0,8
4625,5413,-1,-11,0,-10,-13,-14,-4,-8
4638,5427,-3,-7,-2,0,-2,-10,-2,-14
4638,5427,2,19,1,5,23,16,5,9
4639,5427,-2,1,-1,7,-3,2,1,5
4639,5427,0,13,3,-8,22,12,0,2
4661,5449,3,45,-2,10,44,46,6,21
4661,5449,-13,-47,-5,-43,-29,-50,-19,-65
4661,5450,-2,54,0,-1,66,46,9,-25
4661,5450,23,32,7,62,48,33,42,65
4684,5472,-2,-64,-7,-2,-40,-62,-27,14
4684,5472,-18,-3,5,-43,56,-12,-12,-43
4685,5473,0,53,-5,-3,45,58,9,-4
4685,5473,20,47,1,45,61,45,40,38
4698,5487,-1,-35,2,2,-22,-40,-27,-3
4698,5487,-13,-9,-4,-29,52,-16,-12,-34
4699,5487,-5,40,0,-18,39,41,3,-15
4699,5487,21,61,3,45,68,62,37,49
4729,5517,0,-34,-1,-10,-30,-36,-25,-9
4729,5517,-14,-4,-4,-32,40,-14,-12,-42
4730,5518,1,56,2,5,66,56,12,-4
4730,5518,19,52,0,50,41,52,30,46
4744,5532,-6,-33,-2,-16,-24,-37,-30,-25
4744,5532,-11,15,-5,-31,61,7,-6,-37
4745,5532,5,53,6,15,53,53,14,12
4745,5532,16,34,-2,38,23,33,22,36
4759,5547,-13,-22,1,-28,-12,-26,-26,-39
4759,5547,-8,31,-1,-12,61,21,1,-19
4759,5548,3,38,-4,4,39,39,13,14
4760,5548,12,27,1,26,13,27,7,19
4781,5569,-9,-3,-4,-21,10,-8,-23,-32
4781,5569,-3,27,-3,1,48,22,2,-11
4782,5570,3,29,2,15,32,27,7,9
4782,5570,6,27,1,13,21,26,4,12
4803,5591,-8,5,-2,-16,9,2,-18,-27
4803,5591,0,32,-2,-1,49,21,3,-2
4811,5599,2,24,-2,9,34,23,4,10
4811,5599,5,29,4,11,16,28,6,14
4827,5615,-6,7,1,-14,9,4,-14,-22
4827,5615,-1,31,-3,-5,38,20,0,-10
4827,5615,1,28,1,2,40,25,7,9
4827,5615,7,27,-1,16,7,26,2,14
4841,5629,-10,6,-2,-16,9,3,-15,-26
4841,5629,0,34,1,-1,41,25,0,-11
4842,5630,5,28,1,10,33,26,3,12
4842,5630,5,20,0,17,-2,20,-1,10
4864,5652,-6,8,1,-23,13,5,-13,-26
4864,5652,-2,37,-3,4,50,33,7,-3
4865,5652,3,25,1,4,34,23,5,11
4865,5652,2,17,1,10,-3,16,-1,7
4887,5674,-8,12,-2,-12,17,10,-10,-26
4887,5674,3,41,-4,-3,42,33,5,-1
4887,5675,1,23,4,3,30,20,0,12
4887,5675,2,17,-4,4,-2,16,-2,6
4901,5689,-6,13,0,-11,16,11,-8,-23
4901,5689,0,40,2,-1,44,32,1,-3
4901,5690,1,23,0,4,32,20,3,11
4901,5690,1,13,-1,7,3,12,-1,6
4924,5712,-8,13,-6,-12,19,11,-14,-21
4924,5712,-1,37,5,0,43,34,3,-1
4925,5713,2,23,-2,9,32,20,3,10
4925,5713,-2,14,0,3,-4,14,-4,6
4939,5727,-6,13,2,-12,18,12,-7,-17
4939,5727,-1,37,-1,2,36,34,2,0
4940,5728,2,24,0,8,29,21,3,10
4940,5728,1,10,0,3,6,8,-4,5
4961,5749,-6,13,-4,-15,22,11,-7,-17
4961,5749,-1,39,0,0,37,36,5,0
4962,5750,3,22,4,1,29,19,0,10
4962,5750,0,11,-1,-3,4,10,-5,4
4984,5772,-6,14,1,-14,23,12,-5,-14
4984,5772,0,37,-2,13,31,31,5,1
4985,5772,3,22,1,4,26,20,0,11
4985,5772,2,8,-4,-8,11,8,-3,4
5006,5794,-6,14,0,-13,23,12,-8,-13
5006,5794,2,37,0,5,32,33,3,2
5007,5795,0,21,-2,6,28,18,3,7
5007,5795,-2,10,3,2,4,10,-10,3
5021,5809,-4,14,-1,-14,24,12,-7,-12
5021,5809,5,35,0,10,28,33,2,1
5021,5809,2,22,4,5,27,20,5,10
5021,5809,-2,9,-2,1,3,7,-6,4
5044,5832,-5,14,-2,-9,24,12,-9,-11
5044,5832,3,34,3,-3,26,33,3,2
5045,5833,1,21,0,7,27,18,1,11
5045,5833,2,9,-1,1,-8,9,-6,4
5058,5847,-8,14,-3,-12,21,12,-4,-10
5058,5847,2,39,1,14,33,34,3,1
5059,5847,2,22,-3,9,30,20,2,9
5059,5847,-2,9,2,-1,-1,8,-10,3
5081,5869,-5,14,-2,-13,21,11,-6,-11
5081,5869,5,38,1,4,33,35,4,6
5081,5869,4,23,1,5,30,20,4,10
5081,5869,-2,11,-2,-5,-13,7,-7,4
5104,5892,-6,14,1,-10,22,13,-4,-10
5104,5892,1,37,-1,6,32,31,5,6
5104,5892,2,23,-2,5,29,20,0,10
5105,5892,0,1,-1,-2,-16,4,-10,3
5118,5905,-4,16,-5,-15,24,13,-4,-9
5118,5905,3,36,1,10,27,35,5,4
5126,5914,1,22,-1,7,28,20,3,10
5126,5914,-2,1,2,-4,-11,2,-9,2
5141,5928,-4,16,-5,-8,24,13,1,-10
5141,5928,1,33,-2,1,29,31,1,4
5142,5930,3,22,-1,4,27,20,2,9
5142,5930,-6,-6,-1,-6,-9,-7,-6,2
5172,5960,-6,16,3,-6,22,13,-3,-8
5172,5960,0,38,1,11,30,32,2,4
5172,5960,3,22,-1,-3,29,20,0,8
5172,5960,-2,-7,-4,-13,-3,-5,-12,1
5178,5966,-4,14,-1,-7,22,12,0,-6
5178,5966,3,34,1,13,29,32,4,5
5186,5974,2,22,-5,-5,29,19,2,11
5186,5974,-3,-13,2,1,13,-11,-8,0
5201,5989,-5,15,1,-8,23,13,-3,-5
5201,5989,4,35,1,0,34,33,2,6
5201,5989,3,22,-2,9,27,19,5,9
5201,5989,-2,-4,-4,-12,-8,-7,-10,0
5224,6012,-5,15,0,-5,22,12,-2,-4
5224,6012,0,32,-4,7,31,35,-1,5
5224,6013,1,21,1,8,32,19,0,9
5224,6013,-2,-13,0,-8,-2,-13,-10,-1
5238,6026,-6,15,-2,-7,23,12,-3,-4
5238,6026,0,30,-1,1,24,29,3,4
5246,6034,1,20,-4,7,28,19,2,9
5246,6034,-5,-4,1,-5,1,-10,-13,-1
5261,6049,-1,16,3,-6,22,13,1,-3
5261,6049,2,27,1,3,29,25,3,7
5261,6049,2,20,-3,9,28,18,4,10
5262,6049,-3,-10,0,-2,11,-12,-10,-1
5285,6073,-4,16,-4,-8,30,12,0,-2
5286,6073,3,34,-1,11,29,30,4,7
5286,6074,1,19,1,-4,27,17,3,8
5286,6074,-6,-6,-4,-6,5,-8,-9,0
5298,6086,-3,15,-3,-8,33,13,2,-2
5298,6086,1,29,0,5,30,29,-2,6
5313,6102,2,20,1,7,31,17,4,9
5313,6102,-3,-5,-5,-9,6,-7,-10,-1
5321,6109,-4,15,-5,-4,33,13,5,-2
5321,6109,1,33,-1,2,29,28,3,6
5322,6110,2,20,2,12,31,17,3,6
5322,6110,-5,-3,1,-9,14,-5,-10,-3
5344,6133,-3,16,3,-3,33,13,3,-2
5344,6133,0,28,-1,2,27,28,3,7
5345,6133,4,20,-3,9,31,18,2,7
5345,6133,-3,-9,-3,-8,4,-10,-7,-3
5367,6154,0,17,-2,-2,38,13,2,-3
5367,6154,3,31,5,5,31,31,4,8
5367,6155,2,21,-2,8,32,18,7,10
5368,6155,-4,-10,1,-12,11,-4,-11,-6
5389,6177,-2,16,-1,-5,35,13,1,-3
5389,6177,5,31,-2,3,28,29,4,5
5390,6178,2,21,1,17,31,18,7,7
5390,6178,-3,-13,-3,-24,11,-14,-8,-5
5420,6208,-3,15,-1,-4,37,14,2,-3
5420,6208,1,33,2,7,30,28,4,10
5420,6209,4,23,-3,14,31,19,4,11
5420,6209,-6,-19,-1,-3,15,-15,-13,-9
5422,6210,-3,15,0,-5,31,13,0,-3
5422,6210,2,29,1,6,27,27,3,3
5426,6214,4,21,-4,3,33,18,5,11
5426,6214,-4,-18,-2,-8,15,-18,-7,-9
5441,6229,-1,15,0,-2,33,12,7,-2
5441,6229,2,30,-1,8,27,30,3,10
5441,6229,2,21,1,8,30,19,4,11
5441,6229,-4,-14,-1,-12,19,-13,-12,-10
5465,6253,-2,16,-5,2,33,13,5,-2
5465,6253,3,27,-2,6,27,27,3,7
5467,6254,3,20,5,7,29,18,5,9
5467,6254,-5,-13,-1,-10,19,-18,-9,-8
5487,6275,-4,15,-2,-1,31,12,3,-3
5487,6275,3,27,-1,-4,25,26,2,5
5487,6276,3,21,-3,10,28,18,4,8
5487,6276,-4,-7,1,-1,22,-18,-6,-10
5502,6289,0,14,1,-2,44,12,3,-2
5502,6289,3,25,1,3,26,27,2,9
5502,6290,4,20,-1,4,31,18,8,7
5502,6290,-5,-7,-2,-12,21,-15,-8,-9
5524,6311,-2,14,-3,1,47,11,6,-2
5524,6311,0,27,2,3,25,28,3,5
5525,6313,3,21,4,10,33,18,4,6
5525,6313,-3,-1,0,-16,21,-9,-8,-12
5547,6335,3,18,-1,-4,54,12,6,-1
5547,6335,2,24,-1,6,28,28,2,6
5547,6336,3,20,-3,7,32,18,4,4
5547,6336,-6,-2,-2,-8,24,-8,-10,-12
5561,6349,-2,19,3,1,36,14,7,-2
5561,6349,1,26,4,7,27,26,3,8
5562,6350,4,22,-7,9,30,18,3,5
5562,6350,-6,0,-1,-15,22,-5,-10,-12
5584,6372,1,19,-1,1,63,16,7,-3
5584,6372,-1,23,-1,7,29,23,1,8
5584,6372,4,22,1,-1,32,18,4,4
5584,6372,-5,0,-2,-6,25,-4,-9,-15
5614,6402,0,19,2,-2,62,16,6,-3
5614,6402,2,23,-3,7,28,26,3,10
5615,6402,2,22,0,13,35,19,5,5
5615,6402,-5,1,-1,-14,26,-1,-8,-15
5621,6409,2,21,2,5,44,15,8,-2
5621,6409,3,24,0,-3,26,23,2,7
5621,6410,5,23,2,4,31,19,4,6
5621,6410,-5,3,1,-5,24,-2,-10,-16
5644,6432,-2,20,-2,6,60,17,8,-3
5644,6432,0,26,5,8,31,23,1,9
5645,6432,3,24,-1,12,29,20,6,5
5645,6432,-5,3,0,-16,27,1,-10,-14
5666,6455,3,18,2,4,46,15,6,-3
5667,6455,0,20,-2,7,26,19,3,5
5667,6455,-1,24,2,6,30,19,5,5
5667,6455,-4,5,-1,-5,25,3,-8,-11
5689,6477,-1,19,-3,0,25,15,5,-3
5689,6477,2,20,-3,5,28,20,3,1
5690,6477,2,22,1,6,24,19,3,2
5690,6477,-3,7,-4,-8,26,7,-4,-9
5704,6492,3,17,5,1,32,14,6,-2
5704,6492,1,18,-3,5,25,17,1,1
5705,6493,0,18,-1,13,24,16,2,1
5705,6493,-6,7,-3,-16,26,3,-4,-12
5727,6516,2,19,1,8,36,17,5,-2
5727,6516,0,18,0,2,22,17,1,5
5728,6516,5,21,5,10,27,19,2,2
5728,6516,-4,8,-3,-13,29,4,-6,-17
5756,6545,1,17,-2,0,34,14,7,-2
5756,6545,2,19,-1,4,25,18,0,4
5757,6545,1,22,-2,3,26,20,6,4
5757,6545,-5,6,1,-7,24,2,-8,-15
5764,6552,1,16,1,-1,46,14,9,-3
5764,6552,2,22,0,3,28,19,-1,4
5765,6552,2,24,3,3,26,20,1,4
5765,6552,-4,7,-1,-7,24,2,-6,-15
5786,6574,1,15,-4,3,49,14,7,-5
5786,6574,4,20,0,5,25,18,2,6
5787,6575,2,21,-3,5,26,18,1,4
5787,6575,-3,9,2,-8,26,2,-8,-16
5801,6589,3,17,-1,9,49,15,7,-3
5801,6589,0,19,-1,3,28,18,0,5
5808,6596,3,20,1,4,25,17,1,4
5808,6596,-5,11,0,-9,23,6,-6,-13
5824,6612,3,17,3,4,35,13,7,-3
5824,6612,1,15,-1,-1,28,14,2,-2
5825,6612,-1,18,-4,0,23,16,-3,-1
5825,6612,0,12,0,0,23,12,1,-4
5846,6634,2,10,2,6,-4,9,3,-2
5846,6634,-1,5,-1,-4,19,-2,-2,-7
5847,6635,-1,14,3,-7,17,10,0,-6
5847,6635,-2,12,-3,-3,23,14,3,-1
5869,6657,5,16,-1,9,26,18,4,-2
5869,6657,2,13,-1,4,19,6,-4,5
5870,6658,-6,13,-1,-16,18,9,-13,-14
5870,6658,3,39,-1,9,28,34,13,16
5884,6672,7,3,-5,5,-34,5,2,-3
5884,6672,-1,-25,7,-3,-3,-35,-8,-15
5885,6673,-12,2,-2,-25,11,1,-17,-23
5885,6673,-1,29,3,1,16,28,15,2
5914,6702,16,16,-1,31,-40,15,12,30
5914,6702,-4,-91,-2,-4,-61,-98,-11,-18
5916,6704,-20,-22,-4,-49,-51,-27,-40,-68
5916,6704,-5,49,7,-13,35,43,16,-42
5920,6708,26,56,5,51,22,57,34,65
5920,6708,3,-64,-3,12,-66,-52,-5,19
5929,6717,-12,-4,-1,-20,-4,-3,-26,-19
5929,6717,-6,46,-5,-13,10,46,3,-10
5944,6732,8,-2,1,18,-21,-5,7,4
5944,6732,1,-29,-1,6,-10,-32,-3,1
5946,6733,-9,-13,-3,-23,-5,-14,-17,-21
5946,6733,-3,29,0,-4,11,30,6,-10
5966,6755,10,11,1,23,5,9,15,32
5966,6755,0,-63,-3,-2,-66,-60,-12,4
5972,6761,-13,-11,1,-23,-4,-13,-15,-30
5972,6761,-1,13,-4,-6,-2,13,1,-8
5980,6768,0,-7,6,5,-35,-10,-4,-24
5980,6768,2,41,-2,1,45,35,6,-4
6006,6794,12,3,-2,33,11,1,21,30
6006,6794,-4,-38,-2,-16,2,-43,-15,-6
6007,6794,-8,5,-4,-14,51,-2,0,-22
6007,6794,2,56,-2,0,43,52,-1,-1
6010,6799,14,29,8,31,19,26,20,25
6010,6799,-6,-24,0,-1,0,-34,-18,-19
6034,6822,-3,-2,2,-10,64,12,-8,-22
6034,6822,0,58,1,1,55,65,9,7
6035,6824,16,33,-5,27,22,34,21,36
6035,6824,-7,-28,7,-11,-10,-31,-25,-31
6040,6828,-10,18,-2,-18,69,1,-2,-29
6040,6828,1,58,-1,1,55,65,8,15
6057,6845,16,31,-1,36,11,29,18,32
6057,6845,-7,-25,-8,-25,-8,-31,-23,-36
6063,6851,-7,31,1,-10,75,18,2,-26
6063,6851,4,51,1,9,47,55,12,20
6071,6860,9,18,1,30,2,16,8,23
6071,6860,-8,-12,-3,-30,8,-15,-24,-42
6086,6875,-3,28,0,-8,64,22,5,-13
6086,6875,4,36,0,15,35,39,11,19
6088,6876,10,17,4,18,5,16,7,13
6088,6876,-10,1,-7,-20,13,-3,-19,-37
6100,6888,0,38,-1,-6,69,28,7,-7
6100,6888,4,28,2,8,32,28,6,16
6109,6897,7,22,-1,14,7,23,3,9
6109,6897,-11,6,0,-18,13,2,-21,-34
6124,6912,-2,44,0,3,59,29,8,-4
6124,6912,1,28,4,10,37,28,6,13
6125,6913,7,25,1,13,7,25,2,13
6125,6913,-7,5,-7,-25,11,2,-16,-33
6154,6941,-2,41,-3,0,58,27,3,-8
6154,6941,3,30,5,12,40,29,7,11
6162,6950,2,23,-1,10,3,20,-1,11
6162,6950,-4,4,-2,-5,12,1,-11,-19
6163,6950,-1,23,-2,-4,43,18,3,-10
6163,6950,2,28,-3,2,34,26,1,3
6175,6963,3,16,2,5,2,14,-3,4
6175,6963,-4,10,-4,-9,21,7,-6,-16
6184,6972,0,25,-2,0,28,23,0,-1
6184,6972,0,22,-3,1,29,20,2,3
6186,6974,-1,13,1,4,1,11,-1,1
6186,6974,-5,16,-2,-11,23,12,-5,-18
6207,6994,1,20,6,10,8,18,3,3
6207,6994,1,17,-1,-2,23,15,0,-2
6208,6996,2,15,-6,-1,5,14,-3,1
6208,6996,-5,12,-3,-6,19,9,-4,-11
6220,7008,3,9,-3,2,6,12,1,-3
6220,7008,1,18,1,1,25,16,-1,-1
6229,7017,-2,10,-2,1,15,10,-2,1
6229,7017,-5,14,-3,-12,22,11,-3,-14
6244,7032,4,26,2,2,25,24,1,0
6244,7032,2,18,2,8,25,16,4,8
6245,7033,0,5,0,2,-10,6,-7,3
6245,7033,-11,11,3,-15,17,10,-17,-35
6267,7054,0,57,-1,9,53,47,6,2
6267,7054,5,18,1,9,27,17,7,24
6274,7062,2,6,-1,2,-8,7,-4,7
6274,7062,-9,9,1,-23,12,8,-13,-28
6286,7068,2,56,-2,3,47,45,4,-2
6286,7068,7,24,5,14,31,21,3,20
6289,7078,2,6,1,4,-16,6,-8,8
6289,7078,-10,8,-1,-21,16,7,-10,-26
6305,7091,-2,53,-1,-6,47,45,6,-2
6305,7091,6,25,0,13,30,21,6,20
6306,7094,1,2,1,0,-15,2,-6,6
6306,7094,-8,10,-5,-27,18,8,-13,-26
6343,7130,2,49,-4,11,40,43,3,3
6343,7130,2,22,-4,8,26,19,3,17
6344,7131,-2,4,1,2,-7,4,-9,4
6344,7131,-9,12,0,-16,21,10,-10,-20
6345,7132,2,46,2,2,37,40,6,2
6345,7132,3,21,-1,6,28,19,1,17
6350,7138,0,5,-5,-5,-7,5,-10,4
6351,7138,-7,14,0,-15,22,11,-8,-17
6365,7152,0,46,3,9,37,39,7,4
6366,7152,3,22,-3,9,28,19,6,14
6368,7154,-3,7,-2,-4,-25,6,-7,4
6368,7154,-5,13,-5,-16,20,11,-7,-14
6394,7182,5,35,-3,2,30,32,3,1
6394,7182,4,22,3,6,30,19,4,10
6395,7183,0,3,-3,-7,-7,5,-8,4
6396,7183,-6,13,3,-11,21,11,-8,-15
6409,7197,1,36,1,10,40,35,1,3
6409,7197,0,23,-5,3,29,20,4,13
6410,7198,-1,-2,-2,-13,-19,-1,-8,2
6410,7198,-6,14,-1,-11,21,11,-5,-13
6424,7212,1,37,0,6,38,34,3,3
6424,7212,4,21,1,15,28,19,3,13
6425,7213,-1,-4,8,-2,-4,-6,-10,2
6425,7213,-4,14,-3,-14,22,12,-1,-11
6449,7236,2,38,1,3,36,34,4,8
6449,7236,1,22,-2,1,28,19,3,11
6453,7240,-5,-8,-3,0,1,-7,-10,1
6453,7240,-5,15,5,-6,24,12,-2,-8
6469,7257,2,32,0,-1,38,38,2,5
6469,7257,2,21,1,7,28,19,2,9
6470,7258,-3,-9,-3,-8,-4,-11,-9,0
6470,7258,-4,14,-1,-10,23,11,-3,-8
6484,7272,2,38,-2,9,33,32,4,6
6484,7272,3,21,-2,2,30,19,2,11
6485,7274,-3,-11,-1,-3,-5,-10,-11,0
6486,7274,-6,14,-3,-9,22,11,-3,-5
6506,7294,3,33,3,8,27,27,1,5
6507,7294,1,21,-2,3,30,19,3,8
6508,7296,-2,-13,-1,-8,9,-14,-9,-1
6508,7296,-4,14,1,-10,23,12,2,-5
6529,7317,1,33,-1,7,30,30,4,6
6529,7317,2,20,2,5,27,17,3,8
6530,7319,-2,-11,-4,-7,8,-14,-8,0
6530,7319,-4,15,-4,-9,30,12,-3,-5
6551,7339,3,33,3,2,34,31,4,6
6551,7339,1,20,0,7,29,17,3,11
6553,7341,-4,-7,-4,-4,6,-10,-11,0
6553,7341,-3,15,-2,-7,33,12,-2,-3
6566,7354,3,31,-2,6,31,29,2,6
6567,7354,-1,20,1,8,31,18,3,7
6568,7356,-7,-4,0,-14,4,-6,-8,-1
6568,7356,-2,15,-4,-4,34,11,0,-4
6589,7377,2,29,3,5,32,28,0,6
6589,7377,3,20,-3,5,32,17,4,9
6591,7379,-3,-7,1,-8,6,-7,-10,-1
6591,7379,-3,16,-3,-5,35,13,3,-3
6612,7399,1,32,-4,1,31,29,1,9
6612,7399,3,20,4,10,33,17,4,9
6613,7401,-5,-6,-1,-8,8,-4,-9,-1
6613,7401,-4,16,-2,-4,37,13,1,-2
6626,7415,1,26,0,7,31,26,0,7
6627,7415,3,20,-1,9,31,16,4,9
6628,7416,-3,-9,-1,-12,-1,-8,-7,-3
6628,7416,-2,15,3,-5,35,13,3,-2
6649,7437,1,31,0,11,30,29,4,7
6649,7437,2,20,3,3,34,17,5,6
6651,7438,-2,-7,-1,-10,6,-6,-10,-4
6651,7438,-4,15,-1,-3,33,13,0,-2
6671,7460,2,31,0,4,28,28,4,4
6671,7460,2,21,-3,11,33,18,2,9
6673,7461,-3,-11,0,-5,9,-10,-8,-4
6673,7461,-5,16,0,-6,32,13,2,-3
6686,7475,2,28,-2,5,29,26,3,6
6686,7475,4,21,2,6,33,18,3,9
6688,7476,-3,-3,-3,-5,14,-4,-8,-5
6688,7476,0,16,1,2,27,14,5,-2
6716,7504,-1,7,-3,-5,26,9,-1,2
6716,7504,-1,17,-2,-1,28,15,0,-3
6724,7513,-2,11,1,-4,14,7,-4,-4
6724,7513,1,21,1,4,22,17,4,-2
6731,7519,0,13,2,1,14,8,-2,-1
6731,7519,1,15,-3,6,23,12,2,-3
6733,7521,-5,-3,0,-17,16,-4,-10,-10
6733,7521,0,19,-3,0,27,17,3,-1
6747,7535,2,18,2,3,21,17,4,5
6747,7535,0,16,-3,3,29,13,-1,2
6748,7536,-6,-7,-2,-4,21,-5,-7,-8
6748,7536,-1,13,-5,-3,25,12,7,-1
6777,7565,2,20,0,3,25,20,1,3
6777,7565,2,20,0,6,28,16,3,3
6778,7567,-4,-13,-4,-6,19,-13,-9,-8
6778,7567,0,12,2,-3,22,9,5,-3
6783,7572,2,27,-5,-3,27,24,-3,4
6783,7572,2,20,1,11,30,18,6,10
6807,7596,-3,-13,-1,-12,18,-14,-8,-7
6807,7596,-2,11,3,1,30,10,5,-5
6808,7596,3,30,-1,4,28,27,2,5
6808,7596,1,19,-1,5,27,17,6,10
6809,7598,-6,-10,-1,-6,20,-16,-10,-12
6809,7598,0,13,0,4,32,10,3,-3
6829,7616,2,25,7,1,26,25,5,6
6829,7616,4,18,-3,5,27,15,5,10
6831,7619,-3,-10,-3,-10,21,-18,-9,-14
6831,7619,1,14,0,-2,48,11,7,-2
6843,7631,2,33,1,14,26,28,4,7
6843,7631,4,19,-1,4,29,16,3,8
6850,7639,-5,-4,1,-17,24,-14,-8,-11
6850,7639,0,15,-4,1,52,10,7,-2
6874,7662,2,27,-1,5,27,27,1,5
6874,7662,4,20,0,13,32,17,8,7
6875,7663,-4,-4,-4,-10,21,-12,-9,-14
6875,7663,-2,18,0,-5,57,13,5,-3
6889,7677,2,30,0,7,29,31,5,11
6889,7677,4,22,2,13,32,19,8,7
6890,7678,-6,-5,0,-13,23,-10,-10,-18
6890,7678,-1,17,-1,2,47,13,8,-4
6903,7690,2,28,1,7,26,31,2,5
6903,7690,6,22,2,16,31,19,8,7
6919,7707,-5,-3,-1,-9,22,-7,-9,-14
6919,7707,-2,19,-4,-7,46,14,4,-3
6927,7714,-1,26,0,5,30,30,2,7
6927,7714,4,22,0,13,27,18,4,7
6928,7716,-6,0,2,-7,24,-6,-11,-17
6928,7716,1,18,-3,0,42,14,5,-3
6957,7745,0,26,4,5,22,26,2,6
6957,7745,3,22,3,20,29,19,6,6
6959,7747,-4,3,1,-11,24,-1,-7,-6
6959,7747,-1,17,-6,1,36,14,8,-3
6972,7760,2,19,-3,9,27,17,5,2
6972,7760,1,20,1,15,27,17,1,3
6977,7766,-4,5,-1,-6,24,2,-9,-13
6977,7766,3,20,5,4,44,17,11,-3
6987,7774,2,22,-2,5,24,19,-1,4
6987,7774,3,21,2,-2,26,17,4,2
6988,7777,-4,3,-1,-4,24,2,-4,-15
6988,7777,0,17,2,3,46,15,2,-3
7025,7813,1,21,-2,4,24,23,3,8
7025,7813,3,22,-3,3,27,19,4,3
7026,7814,-7,2,-4,-21,25,0,-10,-18
7026,7814,1,16,1,-1,58,12,-1,-3
7027,7815,4,22,1,11,26,24,-1,6
7027,7815,3,24,-1,5,26,21,10,5
7032,7819,-6,0,0,-5,25,-3,-10,-26
7032,7819,1,17,1,11,49,14,5,-5
7047,7835,2,23,-3,-2,27,24,3,10
7047,7835,7,24,-1,9,27,22,3,7
7048,7836,-6,4,4,-7,23,-5,-10,-23
7048,7836,1,17,0,7,62,15,13,-4
7069,7858,2,22,-3,-16,29,21,3,6
7069,7858,7,23,-2,11,25,21,12,7
7071,7859,-8,6,-5,-33,23,-3,-18,-24
7071,7859,-1,20,0,7,49,12,14,-4
7083,7870,-2,22,-4,1,28,18,-24,6
7083,7870,2,23,1,4,28,18,8,-1
7092,7880,-6,9,-1,-1,26,-1,-2,-20
7092,7880,-3,24,2,12,60,17,-8,-3
7106,7894,2,20,0,64,28,23,20,16
7107,7894,4,22,-7,-62,22,18,-3,6
7108,7896,-5,10,-4,-15,23,6,-23,-27
7108,7896,0,26,-2,-23,62,19,15,-1
7137,7925,5,20,3,34,29,21,0,2
7137,7925,5,22,8,37,25,21,-2,5
7138,7926,-3,13,-1,-23,22,7,3,-16
7138,7926,-2,33,-10,3,48,12,2,-6
7143,7930,2,19,1,-45,32,21,4,28
7143,7930,3,22,4,32,16,23,13,5
7151,7940,-8,15,-2,6,21,8,-28,-38
7151,7940,4,26,-2,7,68,33,28,1
7166,7955,4,19,-1,28,30,20,-2,12
7166,7955,1,23,-6,-45,21,20,-3,6
7168,7956,-4,14,5,3,21,10,-4,-19
7168,7956,3,30,6,30,56,26,6,-9
7189,7977,0,19,-4,-29,32,20,8,5
7189,7977,3,23,-4,11,16,20,-3,4
7190,7978,-9,15,-8,-40,23,11,-8,-25
7190,7978,4,33,5,30,53,24,5,2
7203,7990,5,21,5,-29,29,18,-3,5
7203,7990,-3,24,-8,35,14,17,9,3
7212,7999,-5,15,3,-27,22,13,-30,-24
7212,7999,4,26,0,-3,45,24,1,-2
7227,8014,0,19,2,42,30,18,9,-1
7227,8014,7,21,3,-18,19,21,-6,0
7228,8016,-5,14,-6,-17,23,15,1,-14
7228,8016,-6,32,1,-2,56,21,12,-5
7257,8044,2,19,-3,22,31,16,4,-7
7257,8044,3,21,3,12,16,20,5,2
7258,8046,0,18,-21,-25,23,11,-8,-28
7258,8046,7,30,25,-12,40,32,-2,1
7263,8050,-7,19,-21,12,29,17,2,-28
7263,8050,1,21,31,-9,17,21,-5,1
7272,8060,-5,15,-6,10,23,13,-13,-24
7272,8060,4,29,-4,14,46,33,3,5
7286,8074,6,18,1,13,31,19,11,21
7286,8074,1,20,-1,-4,12,20,5,2
7288,8076,-9,16,9,1,23,12,-20,-33
7288,8076,4,24,-5,4,38,30,5,-6
7309,8097,5,18,3,6,29,16,4,22
7309,8097,3,18,-11,19,20,20,2,6
7310,8099,-10,16,13,-11,20,11,7,-20
7310,8099,3,30,-10,-15,45,22,-5,-7
7332,8119,5,17,19,5,33,19,16,21
7332,8119,0,18,-8,10,10,16,-5,3
7333,8120,-4,17,-11,-22,21,12,-10,-15
7333,8120,2,24,-3,8,33,37,4,-2
7346,8135,2,17,-5,-5,31,15,6,19
7346,8135,2,19,4,13,3,14,-24,5
7349,8136,-7,16,1,4,23,14,3,-21
7349,8136,5,26,0,-5,43,29,15,1
7369,8157,3,17,-15,-24,30,14,-7,15
7369,8157,1,18,-4,17,3,18,-4,2
7370,8159,-7,16,-17,-13,22,14,-18,-20
7371,8159,4,28,13,20,42,42,18,5
7391,8180,3,18,11,-6,32,19,10,11
7392,8180,0,18,-3,11,4,17,-9,4
7393,8181,-5,15,-4,-13,20,14,-5,-19
7393,8181,3,25,-15,36,21,29,-4,0
7414,8202,-7,18,34,-24,30,17,25,7
7414,8202,-3,15,7,9,13,18,-33,1
7420,8208,-3,14,-4,-19,24,12,12,-11
7420,8208,-3,33,11,12,38,29,2,2
7429,8217,7,18,-12,4,31,19,-15,1
7429,8217,1,15,-6,5,12,10,11,-2
7431,8219,-6,15,-10,2,23,18,-32,-32
7431,8219,2,39,26,-20,37,26,37,10
7451,8240,-6,20,-9,-28,28,16,-15,-12
7451,8240,4,13,-6,-5,-2,10,-13,2
7453,8242,-4,15,11,4,25,14,11,4
7453,8242,-6,21,-26,-4,25,40,-31,-12
7482,8270,1,17,19,39,28,18,3,13
7482,8270,-4,11,-34,-37,6,9,8,0
7483,8271,-5,13,29,-4,24,15,-22,-21
7483,8271,6,28,0,-3,32,37,-1,3
7489,8277,2,18,-15,19,28,20,0,11
7489,8277,1,6,2,5,14,10,-8,4
7490,8279,-2,17,-5,-38,23,11,21,-5
7490,8279,0,27,0,7,22,31,1,-6
7511,8300,7,16,-38,23,27,21,-12,4
7511,8300,4,12,43,-1,-2,7,13,1
7513,8301,-6,11,29,-20,26,12,-14,-20
7513,8301,3,20,-19,-4,30,57,-16,10
7526,8314,8,18,-20,16,27,20,7,26
7526,8314,-10,5,4,12,15,10,-10,6
7534,8322,-5,14,-7,-14,23,13,4,-9
7534,8322,7,39,8,30,25,36,7,6
7549,8337,1,16,32,1,25,21,2,8
7549,8337,-3,8,-16,10,-8,5,-7,4
7551,8339,-7,13,-11,-24,25,12,-5,-12
7551,8339,1,36,-10,16,35,39,3,1
7572,8360,4,18,10,6,28,19,9,15
7572,8360,1,9,1,-13,13,5,-5,5
7573,8361,-10,11,-3,10,21,15,9,-17
7573,8361,5,44,-11,-11,34,28,-4,-5
7586,8374,0,21,28,25,30,21,-3,20
7586,8374,-3,6,-17,-60,0,10,1,0
7593,8381,-8,10,-9,2,20,12,-15,-15
7593,8381,8,33,-12,-17,34,34,14,30
7609,8397,0,20,16,7,30,20,13,-9
7609,8397,1,4,2,21,-26,8,-14,10
7610,8399,-4,12,-20,-24,25,13,2,-7
7610,8399,-7,43,19,23,32,28,12,-5
7632,8420,7,19,-12,-38,29,18,-3,12
7632,8420,2,4,-12,-6,-9,2,-9,3
7633,8421,-11,13,6,-21,24,18,-21,-22
7633,8421,9,35,-6,11,36,53,15,12
7646,8434,-10,20,-9,40,28,19,-3,2
7646,8434,-2,11,12,-32,-1,-10,3,-1
7653,8441,-5,11,-12,-12,22,11,-18,-12
7653,8441,4,38,-31,-17,30,5,15,19
7669,8457,0,21,54,5,29,19,-3,11
7669,8457,1,-14,-33,-26,-30,0,-43,8
7670,8459,-19,15,1,16,23,9,39,-4
7670,8459,1,46,33,-19,31,51,7,6
7692,8480,8,20,-34,26,31,24,-4,19
7692,8480,6,-13,14,28,-8,2,-18,0
7694,8481,-1,10,0,-3,20,14,6,-11
7694,8481,-11,35,1,-17,30,20,2,-12
7706,8494,7,21,-24,-20,28,19,1,6
7706,8494,6,0,40,43,-6,-20,0,-3
7713,8500,-19,13,-7,-28,21,14,7,-8
7713,8500,0,40,2,6,34,40,23,5
7729,8517,4,23,0,-1,32,15,-32,0
7729,8517,-11,-10,-40,19,6,-29,-4,-1
7730,8518,9,12,9,-21,26,14,12,-7
7731,8518,3,29,24,53,28,32,-21,-23
7752,8539,1,18,-29,-20,26,19,20,13
7752,8539,4,-23,40,36,-1,10,2,6
7753,8541,-11,13,-12,-22,27,10,-18,-3
7753,8541,-11,49,-9,20,31,49,-17,12
7766,8553,-5,20,-24,21,25,23,-52,11
7766,8553,3,-28,29,-61,13,5,-6,3
7780,8568,1,14,-14,-16,24,9,-20,1
7780,8568,-2,43,16,-10,29,20,-4,-12
7789,8577,-9,21,-18,6,31,20,29,11
7789,8577,-10,-14,2,22,-11,-11,11,5
7791,8578,15,8,-1,-17,23,17,-16,-7
7791,8578,-2,55,24,35,30,2,-19,-25
7812,8600,4,25,-8,-41,35,15,17,-1
7812,8600,1,-13,-23,5,2,-17,17,-8
7813,8601,-6,10,-15,20,27,16,0,-6
7814,8601,5,14,5,-20,25,55,-15,21
7825,8613,-11,23,5,9,29,15,39,-1
7825,8613,-12,-22,11,-60,13,8,-36,0
7834,8622,3,16,13,21,39,14,14,1
7834,8622,0,30,-49,-18,15,-18,52,10
7849,8636,19,19,68,49,27,17,-50,-9
7849,8636,-9,-33,-35,-17,1,-13,23,-4
7856,8645,-28,15,0,11,32,12,-17,-3
7857,8645,5,15,-11,-19,23,31,-2,19
7871,8659,13,19,22,31,27,16,8,6
7871,8659,2,-24,-49,15,19,-9,-21,9
7873,8662,-6,10,46,-33,42,15,-18,-9
7873,8662,10,22,8,33,19,46,1,7
7885,8673,15,21,-44,9,30,17,-2,29
7885,8673,-10,-11,56,27,8,4,-6,-8
7902,8689,-21,14,-17,-16,35,9,13,-5
7902,8689,11,15,4,12,22,52,2,7
7909,8697,-3,19,-23,55,32,21,17,34
7909,8697,-20,-23,33,-75,7,19,-48,-23
7910,8698,7,14,-13,-9,33,14,7,5
7910,8698,-2,35,-5,17,16,33,1,-33
7932,8720,10,19,1,-23,27,23,18,11
7932,8720,3,-32,-22,-27,3,6,-16,2
7933,8721,-30,21,3,19,37,17,44,-6
7934,8721,12,21,23,-2,35,39,-12,-6
7945,8733,7,23,-16,-8,31,17,19,16
7945,8733,1,-5,-18,12,12,-47,-15,-11
7954,8741,4,13,1,-9,27,18,-23,-2
7954,8741,-13,56,-8,-39,31,-21,74,46
7969,8757,1,25,-54,-5,31,18,-20,-19
7969,8757,12,-17,89,-6,12,4,7,11
7971,8758,-2,25,-41,-6,31,14,-3,-9
7971,8758,13,-7,9,9,19,46,-22,43
7999,8787,-1,20,-36,-13,28,18,36,26
7999,8787,-9,-12,24,37,16,-23,-38,8
8001,8788,3,23,-7,6,34,10,31,3
8001,8788,13,17,1,44,10,10,3,24
8005,8793,9,16,15,37,20,20,-8,16
8005,8793,-17,-14,-40,17,9,10,13,-15
8015,8803,12,22,30,-12,51,18,-21,2
8015,8803,-11,23,-7,-2,25,41,-20,-14
8029,8816,20,19,-18,12,17,20,29,21
8029,8816,32,2,-18,-40,18,-36,-8,5
8032,8818,-26,25,82,10,46,10,-11,3
8032,8818,-5,16,-46,-34,15,50,2,29
8059,8846,-7,22,24,-39,19,24,-38,20
8059,8846,-82,-5,-32,20,19,-10,-17,-48
8060,8849,4,21,-27,0,59,7,13,8
8061,8849,42,1,14,28,16,30,-12,25
8065,8853,10,6,22,27,24,25,27,15
8065,8853,0,-9,9,-77,18,-24,-41,-9
8074,8863,13,41,-16,-24,51,16,10,-9
8074,8863,-17,5,4,75,2,35,8,-6
8097,8885,-3,-33,15,-2,27,23,2,-10
8097,8885,13,-17,-52,38,18,-1,8,4
8098,8886,-5,28,31,9,63,15,27,-4
8098,8886,2,-41,5,-29,8,37,-17,-5
8111,8899,9,-101,-23,8,25,17,-8,4
8111,8899,-18,37,55,35,13,-12,25,-7
8113,8901,18,90,-43,22,34,14,-38,2
8113,8901,-46,-67,13,-22,33,19,51,-20
8125,8913,-7,-105,0,5,28,23,-15,-20
8125,8913,19,86,-15,-22,19,-5,-22,0
8134,8923,-13,127,-19,-18,66,21,38,9
8134,8923,13,15,-38,9,18,4,-28,1
8148,8936,4,-128,91,-21,25,16,26,10
8148,8936,-40,-32,-35,-95,22,3,0,-66
8155,8943,53,33,45,127,-35,15,23,13
8155,8943,-25,-13,-57,-90,-18,-105,5,-12
8172,8960,-5,-34,10,-8,-72,-14,-25,-79
8172,8960,57,27,-17,8,24,41,7,2
8173,8962,-30,34,25,27,62,40,4,-6
8173,8962,1,-14,10,54,-60,-24,3,11
8185,8973,16,-11,-12,-46,-86,-44,-9,16
8185,8973,-43,40,-20,8,29,-13,-36,-87
8194,8982,61,9,8,23,37,46,44,46
8194,8982,22,-19,34,68,-28,-28,31,80
8209,8997,-23,6,-11,-79,-65,-32,-46,-49
8209,8997,11,28,5,-34,32,10,24,-6
8210,8998,-7,1,-19,-26,34,40,20,21
8210,8998,12,-11,-27,86,-40,-15,-7,16
8231,9019,-11,11,37,-17,-42,17,8,-16
8231,9019,50,4,-28,-21,8,6,-24,3
8233,9021,-55,-2,-16,-27,28,-9,46,0
8233,9021,7,-5,3,31,-16,-32,-67,-3
8245,9033,-2,4,-24,-7,-47,-6,-29,-14
8245,9033,-20,4,11,-14,37,28,27,-30
8254,9042,46,10,4,56,13,21,13,23
8254,9042,8,1,6,-12,-20,36,48,59
8269,9057,-61,-5,-33,37,-29,-46,-35,-96
8269,9057,3,7,53,-82,38,-13,1,1
8275,9063,29,8,-36,27,6,-17,7,14
8275,9063,13,-6,62,-17,-4,14,10,21
8291,9079,-20,-5,-15,38,-14,6,-3,1
8291,9079,-11,7,-19,9,8,-27,13,-36
8293,9081,2,3,22,-18,18,46,3,17
8293,9081,11,-1,-13,-25,20,-33,-4,18
8314,9102,-5,-4,-5,-10,-21,20,-34,-61
8314,9102,9,8,-39,49,13,17,33,41
8315,9104,-58,-1,20,3,29,-13,2,-56
8315,9104,24,-4,-3,-62,-12,46,-37,11
8336,9125,9,2,-19,24,-22,-7,0,32
8337,9125,-24,5,16,-3,12,16,-34,-27
8338,9126,36,-2,-40,26,31,17,25,71
8338,9126,-27,0,26,-18,-13,-51,31,-24
8351,9139,14,-1,-12,-60,-2,18,-21,11
8351,9139,-25,-4,-4,-35,-18,-13,-22,-46
8353,9140,54,6,-9,23,-1,24,35,66
8353,9140,-26,2,-42,44,-21,-28,-40,-18
8374,9162,12,-2,101,-17,-5,-7,14,-2
8374,9162,2,-1,-27,-10,4,1,-2,-9
8375,9164,-8,0,-11,-33,-6,29,-7,8
8375,9164,-2,2,6,14,5,-18,37,8
8389,9177,-2,2,29,12,-11,-4,-31,-8
8389,9177,-10,1,-1,-5,6,34,4,-18
8390,9179,10,2,13,22,-12,-23,-17,-32
8390,9179,-12,0,4,2,-2,7,-10,16
8413,9200,-5,-4,-25,-14,2,20,51,22
8413,9200,4,2,35,24,0,-32,-4,-25
8414,9203,24,-1,-43,-39,-7,41,14,0
8414,9203,-14,-2,67,38,-3,8,-6,-2
8434,9222,24,0,-20,14,-20,16,12,31
8434,9222,-37,1,-19,-65,0,-51,17,-28
8435,9223,28,1,16,62,-1,0,-6,-14
8435,9223,20,1,15,83,3,62,40,32
8448,9236,-10,-3,-43,-118,-15,-63,-17,6
8448,9236,3,1,22,61,0,7,-1,-28
8455,9244,-3,-1,-3,-19,4,-1,-2,22
8455,9244,-1,-3,-16,6,-8,2,-4,-20
8471,9259,-3,-1,22,24,-4,22,-12,5
8471,9259,16,-4,-26,-34,-1,27,1,40
8473,9262,-28,-2,8,26,-1,-48,-1,-33
8473,9262,2,-1,0,-8,-7,56,-15,4
8494,9281,-12,5,21,48,3,-13,35,-14
8494,9281,8,1,37,-39,4,-17,-40,-9
8500,9288,3,0,-55,-32,-1,20,24,8
8500,9288,-2,0,33,49,-4,-38,10,3
8508,9296,17,4,-32,-31,-1,11,-14,19
8508,9296,-7,-3,-26,16,-10,-26,-10,3
8523,9311,5,0,2,41,6,21,-17,6
8523,9311,-37,-1,-32,-95,7,-52,36,-37
8531,9319,-8,1,11,47,-2,11,-19,3
8531,9319,15,-1,18,-19,-16,27,-7,-8
8533,9321,1,-1,-27,1,16,-9,44,43
8533,9321,8,0,-29,8,-4,1,-35,-27
8554,9342,5,-1,79,8,-4,10,12,28
8554,9342,-7,1,-63,-21,4,-18,-19,-28
8555,9344,23,2,72,55,-3,6,22,42
8555,9344,-14,-1,-25,-32,10,-26,-11,-22
8568,9357,13,-5,-30,8,-12,-9,-18,-22
8568,9357,-3,0,32,54,5,0,-10,22
8575,9363,-13,-2,-17,-31,10,17,0,-33
8575,9363,26,-2,-16,-9,-3,21,-17,20
8591,9379,-1,0,-18,-22,-21,9,12,11
8591,9379,2,-1,-37,13,-1,-37,-26,3
8593,9381,-13,3,26,47,-11,20,-3,-19
8593,9381,16,1,27,-90,-10,21,-1,24
8614,9402,13,-5,-44,35,-19,4,-21,12
8614,9402,-24,1,-15,-25,-3,-5,42,18
8616,9404,-41,3,88,9,5,-4,-39,-50
8616,9404,33,3,-13,-47,-13,26,13,13
8629,9417,-28,-2,-11,13,-12,4,32,4
8629,9417,-7,-2,-8,1,-20,-35,-12,-34
8642,9431,12,-2,20,10,4,27,-9,30
8642,9431,-7,3,-20,30,-5,26,-31,-30
8651,9440,19,0,3,3,0,23,40,42
8651,9440,-2,0,2,11,16,-38,-1,-36
8653,9442,-22,-2,-59,-2,-2,43,8,-16
8653,9442,11,0,93,-26,-1,26,-1,24
8674,9462,-5,-4,-41,-8,-12,-19,-39,-30
8674,9462,-5,-2,19,24,5,-3,-3,-19
8676,9464,4,0,-64,-35,-4,1,38,25
8676,9464,15,0,58,112,-4,-36,-59,5
8696,9484,-19,-1,10,-14,6,-20,16,-7
8696,9484,13,0,17,-26,2,10,11,-3
8698,9486,11,0,-44,-24,4,-10,-11,21
8698,9486,-20,-1,36,84,-2,-14,-4,-12
8712,9499,-17,4,-16,-51,-13,10,-3,-1
8712,9499,-19,2,-8,-69,5,-17,9,-23
8714,9501,29,4,30,29,-6,44,28,36
8714,9501,-6,-3,-49,10,-7,6,-30,-4
8742,9530,28,2,20,28,4,-17,10,23
8742,9530,-38,-1,-25,-52,-3,-5,19,-30
8743,9531,-1,3,48,80,-15,20,-29,-45
8743,9531,5,-1,-87,-71,14,-26,35,26
8748,9536,0,0,28,-50,6,-3,7,6
8748,9536,-22,-1,-12,13,-2,-29,-10,-21
8755,9543,25,-4,15,12,8,-21,-20,26
8755,9543,-36,2,-55,20,-9,32,-14,-42
8772,9559,27,-5,14,9,-8,-13,-3,27
8772,9559,-25,-1,8,-6,10,11,4,-16
8773,9561,34,1,-6,14,-6,23,-12,27
8773,9561,-54,-2,25,-43,10,-38,23,-60
8801,9589,-16,0,-29,-7,-8,-3,-8,-11
8802,9589,25,-1,30,18,8,18,-32,4
8803,9591,31,-7,-50,-24,-22,1,37,31
8803,9591,-2,-3,45,6,9,-14,-30,30
8808,9596,-3,-2,-16,-18,-13,17,-10,-9
8808,9596,-24,3,-12,34,-9,-1,-16,-33
8816,9605,3,-2,-9,-28,12,5,5,7
8816,9605,38,1,-46,28,0,28,18,55
8831,9619,-48,-3,27,-11,-13,-62,-14,-78
8831,9619,36,-2,12,12,2,61,11,29
8839,9628,-29,4,18,-22,-3,-39,7,9
8839,9628,19,-1,5,-27,-4,-13,10,28
8854,9642,11,-1,-8,33,-16,11,-35,-5
8854,9642,-10,6,-16,-8,4,-20,28,3
8860,9649,-26,1,13,6,10,6,-35,-30
8860,9649,32,1,-7,6,-4,8,14,4
8868,9656,-18,0,4,7,-6,34,-2,15
8868,9656,-4,0,-59,-33,0,-26,57,33
8877,9665,-23,-5,71,-58,-2,-20,-20,-73
8877,9665,43,-1,-29,22,-1,54,7,47
8891,9679,-67,1,-28,4,4,-41,-33,-67
8891,9679,35,3,21,44,-12,7,-3,17
8899,9687,-20,1,-16,-6,10,-9,13,-1
8899,9687,13,0,52,28,16,-17,17,7
8913,9701,23,1,-9,19,-7,-2,16,26
8913,9701,16,-5,12,39,9,17,-17,-12
8922,9709,-71,3,-18,-54,8,-34,-22,-9
8922,9709,6,1,-37,-53,-9,42,5,-38
8936,9724,23,-4,56,21,3,18,56,62
8936,9724,-2,-7,-7,-30,7,-29,-87,-71
8938,9727,26,-4,14,62,-8,32,20,33
8938,9727,-29,0,-9,-16,13,27,15,-3
8951,9739,13,1,-20,22,-10,8,-9,11
8951,9739,9,2,-8,-35,7,-19,26,19
8953,9742,-26,-1,20,-24,-4,1,-1,-27
8953,9742,1,3,11,29,-6,4,-4,41
8974,9762,10,0,-41,-89,-10,-54,-14,-18
8974,9762,-11,1,65,71,7,3,4,11
8975,9763,9,2,-24,-8,-1,0,-1,10
8975,9763,-9,0,-2,-1,-7,9,15,-4
8987,9775,24,-1,-2,65,-6,-10,-13,26
8987,9775,24,-3,-81,-74,-6,8,23,36
8997,9785,-51,0,86,0,25,-31,-3,-31
8997,9785,-9,1,-68,27,-10,6,-8,-2
9011,9800,5,-1,4,37,-17,4,-55,-26
9011,9800,-10,-1,-19,-9,-9,4,63,8
9013,9801,57,1,-17,53,-3,-18,-70,19
9013,9801,-15,-1,27,-4,-1,12,-15,-17
9034,9821,-16,-2,-13,-50,-3,-1,-1,-17
9034,9821,9,2,32,26,0,26,46,10
9035,9824,5,0,-37,-24,-8,-31,13,11
9035,9824,-2,2,29,21,2,-2,-20,-14
9048,9836,-13,2,9,16,-2,15,14,-26
9048,9836,10,-1,-50,33,-3,-7,-24,12
9056,9844,6,3,83,-1,16,-8,51,42
9056,9844,1,-3,-53,-14,-19,-5,-40,-44
9072,9860,4,-1,17,11,-13,-5,-8,13
9072,9860,-15,-11,-4,-10,8,5,-12,-16
9073,9861,20,-4,-38,23,-3,-26,-29,9
9073,9861,23,-1,5,17,8,30,38,28
9094,9882,-15,4,48,49,-1,-18,-44,-26
9094,9882,4,5,42,-58,20,-27,31,40
9095,9883,-29,-7,-49,11,-6,-32,-16,-68
9095,9883,9,-4,10,-3,10,29,-2,-7
9116,9904,8,7,-21,-24,6,-24,89,46
9116,9904,8,6,20,32,1,-17,-19,-17
9118,9906,1,14,9,-46,4,118,28,18
9118,9906,-20,6,-34,-21,12,-92,6,-6
9139,9926,-7,-5,14,-19,6,13,19,-19
9139,9926,-4,1,-19,38,3,-12,-9,-17
9140,9929,28,6,43,-29,-8,45,30,24
9141,9929,8,2,6,15,-2,33,6,18
9154,9942,-5,-4,-50,2,-3,-45,10,21
9154,9942,-32,-1,77,-51,28,-21,10,-39
9155,9944,23,-3,-70,30,-17,45,-47,-6
9156,9944,-18,0,32,-1,5,-1,-5,-4
9184,9972,13,-7,11,-5,6,-19,0,4
9184,9972,-12,-2,-13,23,5,11,-25,-24
9185,9973,2,-3,-17,-1,-2,-30,35,15
9185,9973,10,3,13,-16,0,-7,7,24
9190,9979,-1,-3,-17,0,7,-7,-8,-7
9190,9979,-4,-4,3,20,-1,24,-36,-21
9205,9993,-6,0,23,-5,2,19,0,15
9205,9993,14,1,-13,2,-12,-1,0,21
9214,10001,3,-19,3,0,-6,-38,-23,-16
9214,10001,-14,-1,-13,-29,-2,4,-15,-9
9215,10004,27,3,-12,42,-1,16,11,11
9215,10004,-5,10,13,-5,0,4,0,6
9237,10024,-3,-27,0,-28,-1,-3,-6,-5
9237,10024,-3,-6,8,-3,6,-26,-1,3
9239,10027,3,16,-20,12,-1,14,-10,1
9239,10027,6,-77,1,4,2,19,15,0
9252,10039,-11,-23,0,-5,9,2,-7,-4
9252,10039,0,1,5,0,7,-5,-4,0
9253,10041,-6,56,-10,0,-4,19,-7,-11
9253,10041,5,82,-6,-6,-1,3,-11,8
9274,10062,-4,-4,3,-4,4,-14,-2,-4
9274,10062,-6,-42,5,0,2,-5,-6,-4
9275,10063,15,-22,-14,-5,-7,1,-7,6
9275,10063,-10,12,2,-3,-11,-1,5,7
9297,10085,-3,-38,-7,5,-8,-26,-2,-11
9297,10085,0,-22,0,-8,6,2,4,-6
9298,10086,3,-26,-6,-6,8,9,-2,7
9298,10086,-3,58,0,10,18,-9,-2,-2
9311,10099,-9,47,-6,-7,4,-15,-8,-14
9311,10099,5,-25,5,-4,3,23,3,3
9335,10123,-2,25,-4,3,11,4,3,4
9335,10123,-5,24,-14,-1,2,-2,-5,-1
9335,10124,2,-10,17,-11,-9,-2,4,-4
9335,10124,2,-27,-11,-6,0,-2,-1,2
9337,10125,-4,4,-14,19,-5,12,-3,-1
9337,10125,0,-3,18,-22,3,9,5,5
9356,10144,0,-14,-2,5,-24,-24,-11,-1
9356,10144,1,-51,2,4,-17,13,-3,-2
9364,10152,-1,-4,-1,-2,-2,3,-3,2
9364,10152,1,25,-2,13,2,-5,-8,0
9371,10158,-1,-9,5,-10,4,0,2,-3
9371,10158,-1,-3,-4,-5,0,3,2,0
9385,10174,-2,7,-1,2,-1,1,-9,0
9385,10174,-1,20,-2,4,8,1,5,5
9394,10182,-3,4,-2,-7,-19,-7,-5,-5
9394,10182,3,8,3,12,-9,6,3,0
9395,10183,-1,-11,-1,-9,-4,4,4,5
9395,10183,-2,4,-9,-9,8,-3,-3,0
9416,10204,0,-10,16,10,-1,-9,-2,-6
9417,10204,-1,-2,-5,-2,-4,3,0,0
9418,10206,2,-8,1,0,17,0,2,4
9418,10206,0,6,-2,0,34,6,1,2
9431,10218,-1,4,-8,2,-6,-4,1,-5
9431,10218,1,-5,2,2,-5,8,-3,0
9437,10226,2,-4,1,-1,-1,4,4,3
9437,10226,-2,22,2,2,0,-9,6,3
9454,10242,0,-4,-2,-17,-19,-9,-5,-4
9454,10242,-3,-4,1,3,2,6,0,-6
9455,10243,-4,5,-4,0,4,4,-3,-1
9455,10243,1,14,0,6,6,4,1,-1
9476,10264,1,3,-3,0,-13,-13,1,-3
9476,10264,0,-5,-2,-3,9,3,-1,1
9478,10267,-1,2,-2,-2,-2,6,2,0
9478,10267,1,-2,0,-3,2,6,1,6
9490,10278,-2,-3,-3,2,0,-9,-3,-4
9490,10278,1,-1,-1,2,-9,5,2,-1
9505,10293,-2,3,2,-9,1,6,4,0
9505,10293,3,1,-1,0,12,9,0,7
9515,10304,-2,-6,-3,-1,-9,-10,-2,0
9515,10304,-1,4,-1,4,7,3,1,5
9517,10305,1,0,6,3,9,6,0,2
9517,10305,-3,4,-3,2,-1,7,0,1
9537,10324,1,4,1,2,5,-9,2,1
9537,10324,0,1,-2,-3,-8,7,-2,0
9538,10326,1,1,1,2,7,-1,0,-1
9538,10326,-1,4,-1,5,10,0,0,0
9551,10338,-2,-5,-3,-1,-14,-13,0,-5
9551,10338,-1,3,1,0,6,5,2,2
9559,10347,-1,1,-2,-3,0,9,1,-1
9559,10347,1,4,1,5,-6,2,2,0
9581,10369,0,-5,-3,-8,-8,-9,0,-1
9581,10369,0,3,-1,-6,3,8,-4,-1
9583,10372,1,5,-2,3,6,3,-20,9
9583,10372,-1,6,2,6,8,4,11,0
9596,10385,-1,0,-1,-5,1,-10,1,-6
9596,10385,2,5,-1,2,2,4,-5,1
9598,10386,1,4,0,-1,9,3,5,2
9598,10386,0,-4,-3,0,7,5,-9,9
9611,10399,-2,-10,-1,1,-6,-7,-3,-8
9611,10399,0,-1,2,1,-5,6,17,5
9618,10405,-2,-1,-1,1,2,0,1,-1
9618,10405,-1,2,-2,0,7,0,-2,0
9634,10423,-4,-7,-1,-1,-13,-9,-1,-6
9634,10423,1,7,-2,2,7,8,-3,-2
9636,10424,0,3,0,1,6,8,3,1
9636,10424,1,1,0,-6,0,4,3,1
9655,10444,0,-7,-2,1,-8,-6,-4,0
9655,10444,2,7,0,0,-2,8,-2,-3
9664,10452,0,0,0,5,0,0,5,5
9664,10452,0,2,4,0,10,5,-1,-2
9671,10458,-1,-8,2,4,-4,-5,1,-9
9671,10458,0,4,3,-4,-5,6,1,0
9677,10465,-9,0,-2,12,0,3,8,-11
9677,10465,16,4,-8,-17,-5,-1,-41,11
9694,10483,-1,-6,-1,5,8,-3,0,-12
9694,10483,-1,6,0,4,6,14,6,6
9696,10484,3,3,2,-2,11,6,7,8
9696,10484,-2,0,5,15,5,4,7,6
9724,10512,0,0,0,7,-21,-20,-5,0
9724,10512,-10,9,-5,-15,12,7,-7,-1
9725,10514,-5,-4,-1,-3,-9,3,0,3
9725,10514,2,0,0,0,-7,-1,3,-1
9730,10518,-12,-9,0,-18,-17,-9,-4,-5
9730,10518,15,0,0,19,-5,4,8,4
9739,10527,-1,5,-2,-4,-9,2,-2,-1
9739,10527,-4,1,1,3,-7,0,3,2
9754,10543,-3,-10,-1,-3,-12,-13,-3,-4
9755,10543,0,4,1,10,-9,1,4,2
9756,10545,-5,4,-1,1,-1,0,-6,-12
9756,10545,-1,-6,-4,-20,-6,0,12,9
9777,10565,-6,-7,2,1,-3,-7,-4,-22
9777,10565,-7,-2,4,4,-6,3,-4,-1
9778,10566,11,1,0,12,2,4,6,21
9778,10566,-9,7,0,13,-18,-1,-2,-5
9790,10578,4,-13,-7,-18,5,-13,-1,-1
9790,10578,2,8,-2,-10,-5,5,-1,-1
9799,10587,2,-1,2,7,-1,2,-3,-3
9799,10587,-3,-6,0,2,0,1,6,5
9814,10602,0,1,0,-4,-17,-4,2,3
9814,10602,12,7,2,3,10,9,-8,-6
9815,10603,-17,1,-1,11,-1,-1,-5,9
9815,10603,5,0,-4,-24,-12,-9,7,-9
9836,10624,2,-8,0,24,5,-3,-5,-2
9836,10624,-4,7,2,8,2,11,3,7
9838,10626,5,8,-1,-2,6,-4,-2,-1
9838,10626,-5,-6,0,1,1,-3,-6,-2
9850,10638,-3,-9,0,-8,1,-13,2,0
9850,10638,-10,6,1,8,7,6,2,4
9859,10648,6,2,0,5,-1,3,2,-8
9859,10648,6,1,-2,1,-3,0,-12,-2
9874,10662,2,-5,-3,-19,-2,-13,7,-12
9874,10662,7,3,0,4,3,10,6,6
9880,10668,-7,-2,-1,-17,2,9,0,12
9880,10668,-2,-1,1,11,2,-4,6,-27
9896,10684,-7,-16,0,22,-3,-12,-4,0
9896,10684,3,16,-4,-34,-2,9,2,2
9898,10686,9,2,-3,15,4,2,-3,-1
9898,10686,-4,-10,0,-19,-11,-8,1,9
9910,10698,1,-13,2,9,-9,-2,-5,2
9910,10698,-9,2,0,9,8,-5,1,-3
9919,10707,7,4,3,3,4,9,-3,-2
9919,10707,2,-4,-4,24,-7,-2,-6,9
9933,10721,-13,2,-2,-29,-11,-8,9,-6
9933,10721,9,2,-2,3,6,2,-10,5
9949,10737,2,8,-1,-9,-5,12,9,8
9949,10737,-2,2,-3,5,-10,5,-2,2
9956,10745,6,-6,-2,-1,-7,-11,-6,2
9956,10745,-6,13,0,-8,2,0,0,-5
9958,10746,5,2,2,18,-9,-4,0,-6
9958,10746,-3,-8,0,-14,-5,3,0,8
9970,10758,-2,-6,-3,22,-11,-10,-2,-4
9970,10758,3,8,-6,-37,-1,3,-1,-2
9979,10767,1,-5,0,17,6,-4,1,1
9980,10767,-4,-12,3,-4,-1,8,3,2
9994,10782,-2,-6,2,6,-13,-2,-4,-5
9994,10782,2,10,-1,13,-5,6,0,2
9995,10783,-1,0,-2,-28,7,4,1,3
9995,10783,2,-11,0,15,-9,-4,2,1
10016,10804,0,-6,3,-6,3,-11,-4,-4
10016,10804,-5,5,-1,21,6,6,2,0
10018,10806,0,2,-7,-60,-2,2,-1,1
10018,10806,5,-10,0,7,-4,-2,-1,1
10039,10828,2,-9,0,1,-9,-9,-1,-4
10039,10828,-2,7,-2,-3,1,0,3,-1
10041,10829,0,3,2,11,3,6,-1,1
10041,10829,-2,-4,1,-3,-14,-4,1,3
10054,10842,-1,-9,-7,-36,3,-13,-5,-2
10054,10842,-2,2,5,15,0,0,-2,0
10055,10844,-1,10,-1,-6,-1,5,0,1
10055,10844,-4,-6,0,22,-10,-6,-5,0
10076,10864,6,-9,1,4,1,-13,-3,-5
10076,10864,1,1,1,-4,-1,2,0,1
10078,10866,-3,2,3,0,9,2,0,1
10078,10866,-1,-2,2,3,1,1,-1,2
10090,10878,-1,-6,-5,-11,-7,-4,-3,-3
10090,10878,1,4,-1,1,-5,6,0,0
10099,10888,4,5,0,12,-2,6,1,0
10099,10888,1,-8,0,-9,-13,-6,-2,2
10114,10902,0,-11,0,6,-10,-12,-1,-4
10114,10902,0,-2,0,-10,-16,5,-1,4
10115,10903,-1,0,-5,-18,4,1,-1,-3
10115,10903,1,-13,1,11,-18,-6,0,-2
10136,10925,-2,-4,-1,-14,-7,-10,-1,-3
10136,10925,2,5,0,13,2,1,3,2
10138,10926,-5,-1,1,8,2,-1,0,1
10138,10926,-2,-9,-2,-4,-12,-7,-2,1
10159,10948,-2,-5,-1,-13,-1,-13,-4,-4
10159,10948,1,0,-1,4,-2,2,1,-2
10160,10949,0,3,-2,3,1,3,0,1
10160,10949,1,-7,0,0,-3,-13,-1,-1
10174,10963,-12,-2,3,-4,9,-3,-1,-2
10174,10963,12,4,-5,8,-4,1,-1,-12
10175,10964,8,8,-3,-32,4,10,1,4
10176,10964,-5,-3,0,2,14,0,1,-1
10196,10985,4,-3,0,3,0,-4,0,-2
10196,10985,-7,4,2,3,12,8,2,4
10198,10986,-1,5,1,16,5,4,-1,2
10198,10986,1,-10,-2,-10,-8,-3,-6,-2
10219,11007,0,-5,4,1,0,-4,1,-6
10219,11007,-1,0,-2,-3,11,0,-2,0
10220,11008,-1,-2,1,8,4,2,-2,2
10220,11008,-3,-2,0,-10,-8,-6,0,1
10234,11022,0,0,-1,2,-8,-5,-2,-3
10234,11022,-2,1,1,3,6,5,3,0
10235,11024,-3,1,0,-1,4,-3,1,3
10235,11024,-2,-9,1,7,-13,-11,-2,-2
10256,11045,0,-4,0,-9,-1,-7,0,-3
10256,11045,0,7,2,-4,0,3,1,2
10258,11046,-3,4,0,12,1,5,-1,2
10258,11046,-2,-11,-2,-6,-9,-8,-3,-4
10279,11068,2,0,-1,9,-6,-5,-1,-6
10279,11068,-3,2,0,-8,1,6,0,1
10281,11069,0,3,-1,-6,-4,1,1,2
10281,11069,-1,-11,0,14,-1,-9,-2,-1
10294,11083,-1,-1,-6,-32,16,-3,0,-5
10294,11083,-2,0,2,9,6,4,-5,3
10296,11084,1,-1,1,14,-1,-1,1,0
10296,11084,1,-9,-1,13,-8,-9,1,-3
10316,11105,0,-3,-5,-47,0,-4,-1,-3
10316,11105,1,-1,0,2,-3,6,1,2
10318,11106,0,1,-2,2,4,6,-1,0
10318,11106,-1,-5,1,-8,-9,-3,2,0
10339,11127,-2,0,4,28,3,-5,-3,-5
10339,11127,-1,5,-3,-24,5,4,-2,1
10340,11129,0,2,2,10,4,5,-1,6
10340,11129,-1,-9,-3,-15,-5,-5,-3,-3
10353,11141,1,4,1,8,14,-1,1,-6
10353,11141,1,2,-2,6,2,6,0,1
10360,11149,-1,3,-2,-5,-1,2,0,2
10360,11149,0,-8,-2,-5,-11,-10,-2,-1
10376,11165,-1,6,4,0,0,-2,2,-1
10376,11165,2,1,1,5,1,-5,0,-1
10378,11166,0,5,-1,5,0,3,0,1
10378,11166,3,-21,0,-4,-9,-12,3,-1
10406,11194,6,-3,0,-3,-10,-3,1,-3
10406,11194,0,-2,0,0,-3,7,0,3
10408,11196,1,0,0,3,14,8,0,2
10408,11196,-6,-7,0,-4,-8,0,-3,-3
10413,11202,-1,0,0,18,23,4,-4,-2
10413,11202,3,3,-1,-14,-5,-3,1,3
10420,11208,3,-8,1,3,6,4,0,1
10420,11208,0,-9,1,8,-2,-9,-3,-2
10436,11224,-1,-7,0,-5,2,-6,1,-1
10436,11224,-2,1,-2,0,-5,7,-2,0
10442,11231,-4,12,1,6,12,2,0,2
10442,11231,-6,1,-2,-21,-13,-11,-3,-1
10459,11247,-2,5,-4,1,10,-3,0,-5
10459,11247,-1,4,0,16,7,2,-2,1
10465,11253,-1,9,-1,-2,1,4,1,0
10465,11253,3,0,2,6,-14,-8,-2,-3
10473,11262,-1,8,-1,-4,-7,3,3,-4
10473,11262,-1,3,-4,-17,-6,9,2,3
10480,11268,2,2,-1,-4,-4,5,-1,0
10480,11268,-3,-12,-2,-5,-13,-10,-4,-3
10496,11285,-2,-4,3,9,-2,1,0,-1
10496,11285,0,0,0,9,-1,0,1,2
10498,11286,4,1,2,-4,-3,5,-2,1
10498,11286,-2,-8,-2,-8,-14,-11,-2,-5
10518,11306,-5,-4,-3,-10,-7,-4,0,-2
10518,11306,-5,1,-1,3,-5,0,1,0
10526,11314,-2,3,-1,3,3,1,2,1
10526,11314,2,-10,2,2,-5,-14,-3,-2
10533,11322,4,3,3,2,-4,3,1,-1
10533,11322,-1,1,-2,3,5,4,1,-2
10540,11328,0,6,-4,0,8,3,-3,2
10540,11328,4,-4,1,-7,-4,-11,-1,-3
10565,11353,-4,2,-3,4,8,2,0,-2
10565,11353,0,3,0,-3,0,3,-2,3
10566,11354,2,3,0,4,8,5,0,4
10566,11354,2,-13,0,-1,-8,-7,-3,-1
10586,11375,2,-3,-2,-5,5,-1,-2,-2
10586,11375,-4,-4,0,5,7,3,1,1
10587,11375,-5,4,-1,-6,-16,1,1,3
10587,11375,-3,-6,-1,-6,1,-10,0,-7
10593,11381,2,5,2,6,13,3,3,-3
10593,11381,3,4,-2,9,-5,3,-2,2
10601,11389,2,3,1,0,-6,4,-1,1
10601,11389,-1,-10,0,-5,-10,-8,0,-4
10616,11404,1,3,-1,2,2,3,1,1
10616,11404,2,5,1,0,20,4,3,1
10616,11405,-3,8,-4,-19,-4,1,-1,3
10616,11405,-1,-5,1,5,-4,-9,0,-4
10640,11427,0,2,-3,3,15,7,0,-2
10640,11427,2,6,0,3,1,2,0,1
10640,11428,1,5,-1,6,11,6,0,2
10640,11428,0,-6,0,1,-5,-8,-1,0
10653,11441,0,7,2,0,10,1,2,0
10653,11441,-3,5,-1,-10,0,1,-2,2
10661,11449,-2,0,-4,7,9,0,0,1
10661,11449,-1,-8,0,6,-2,-8,0,-4
10692,11479,-2,5,-2,-2,15,6,2,-1
10692,11479,2,-1,1,2,-3,4,-1,0
10692,11481,0,12,1,9,8,6,3,0
10692,11481,-1,-8,-1,-7,-6,-9,-2,-2
10698,11486,-3,4,0,-1,11,3,0,-1
10698,11486,1,1,2,4,3,2,1,0
10699,11487,0,5,-1,-7,-1,6,1,2
10699,11487,-2,-6,0,-3,-9,-10,-2,-4
10723,11511,1,6,-5,-6,11,3,0,0
10723,11511,2,-1,0,2,-1,1,0,3
10724,11512,0,2,0,2,-3,6,0,1
10724,11512,-1,-12,0,14,-13,-11,-5,-5
10736,11523,-1,9,-3,-38,7,1,2,3
10736,11523,-2,3,0,-3,1,5,-1,1
10737,11524,0,8,3,14,7,5,1,3
10737,11524,0,-2,0,-4,-4,-8,-2,-3
10758,11546,-1,5,2,8,5,7,2,0
10758,11546,2,1,-3,3,11,6,-1,-1
10759,11547,-1,5,2,-7,-2,9,0,1
10759,11547,-2,-7,-2,-2,-8,-11,-4,-2
10774,11562,-2,11,1,14,12,6,2,-2
10774,11562,-1,2,0,-3,2,1,2,2
10781,11569,1,0,0,5,1,5,0,2
10781,11569,-1,-9,-3,-10,-11,-10,-3,-2
10796,11583,0,8,-1,-3,7,4,0,-3
10796,11583,1,4,0,2,2,1,-1,3
10796,11584,3,5,0,2,6,9,3,3
10796,11584,-2,-9,-1,-1,-10,-9,-3,-3
10818,11606,0,6,1,-5,6,9,1,-1
10818,11606,-1,0,0,5,-5,3,-1,-2
10819,11607,3,6,-1,3,10,2,-2,6
10819,11607,-2,-8,-1,-11,-8,-12,0,-6
10833,11621,-2,8,-1,13,7,9,1,-2
10833,11621,-1,2,-2,-5,1,5,3,1
10841,11629,0,4,0,1,1,7,1,3
10841,11629,-2,-11,-1,-1,-9,-10,-3,-2
10864,11652,-1,7,3,2,0,5,-1,-1
10864,11652,-1,4,-3,-6,-10,4,1,1
10865,11652,0,8,-1,-3,-10,4,0,1
10865,11652,-2,-9,1,-2,-9,-11,-1,-3
10886,11674,0,2,-3,6,5,4,3,1
10886,11674,-2,4,4,3,-10,2,-3,3
10887,11675,2,0,-2,1,-15,1,-2,0
10887,11675,-1,-13,-1,-4,-1,-9,-1,-6
10892,11680,1,7,-1,0,-3,2,-1,1
10892,11680,-2,-1,1,-2,0,0,0,5
10901,11689,2,-1,-1,1,-10,4,-1,-6
10901,11689,-4,-7,-1,-9,-10,-7,-3,-4
10916,11704,-2,6,0,4,6,8,-1,0
10916,11704,0,1,-3,0,2,2,1,-1
10916,11704,-5,0,-1,2,-4,1,-1,1
10916,11704,1,-8,-1,-2,-9,-11,1,-3
10938,11727,2,7,1,1,8,6,0,-1
10938,11727,2,5,-3,-1,-2,2,0,1
10939,11727,2,-1,2,0,-13,2,1,4
10939,11727,-3,-4,0,-4,-3,-10,-2,-4
10953,11741,-1,5,0,3,3,5,0,3
10953,11741,0,0,1,5,4,4,-1,2
10961,11749,1,1,2,1,-6,1,0,2
10961,11749,0,-9,1,-4,-3,-7,-1,-6
10976,11764,1,8,1,-3,-10,0,0,1
10976,11764,-1,1,1,4,6,7,1,2
10976,11765,-2,0,1,5,-1,3,1,-3
10976,11765,-4,-8,-2,-2,-4,-8,-1,-4
10998,11786,-1,4,-4,-2,7,11,3,-2
10998,11786,-1,3,0,-1,-7,5,0,1
10999,11787,2,0,-3,5,9,0,0,3
10999,11787,0,-10,-2,-6,-2,-11,-2,-3
11013,11800,-3,7,-1,6,-1,2,-1,-1
11013,11800,1,6,3,2,6,2,0,2
11021,11808,1,3,-1,-2,7,2,0,3
11021,11808,-1,-8,-2,-11,-6,-12,-4,-4
11036,11824,-2,3,-2,0,21,9,3,0
11036,11824,0,0,-1,3,4,3,-3,1
11036,11824,-1,0,-1,6,1,3,1,5
11036,11824,0,-10,-1,5,-12,-11,0,-3
11058,11847,0,9,-1,-14,0,7,0,2
11058,11847,-2,3,-1,1,3,4,3,2
11059,11847,1,1,1,-1,0,2,-4,0
11059,11847,-1,-8,0,-1,-8,-9,-2,-3
11081,11869,-3,5,-1,4,8,3,-1,1
11081,11869,1,2,-1,5,4,0,0,0
11082,11870,-1,-2,-1,1,-3,0,-2,3
11082,11870,0,-5,-3,-4,-6,-10,0,-6
11096,11884,2,4,0,4,14,5,2,1
11096,11884,2,3,-2,3,9,3,1,2
11096,11885,0,-3,0,-9,2,1,0,2
11096,11885,-2,-6,-1,4,10,-6,-3,-4
11118,11907,2,8,2,-4,-3,7,3,3
11118,11907,3,1,-2,0,6,6,0,0
11119,11907,0,-4,0,8,-2,-2,-1,1
11119,11907,0,-7,0,-4,-11,-10,0,-6
11142,11930,0,4,-3,-10,-15,6,0,3
11142,11930,-2,1,-1,2,2,1,1,2
11143,11930,0,0,1,4,-8,-5,0,1
11143,11930,-1,-7,0,-11,3,-5,-1,-4
11156,11944,2,12,-2,4,20,6,-2,1
11156,11944,-1,3,-2,-4,-6,4,2,0
11156,11945,-1,-1,-1,-2,-5,-3,-2,3
11156,11945,-2,-8,-2,0,2,-8,-2,-3
11178,11966,1,7,0,9,6,6,2,3
11178,11966,-1,0,-1,-10,-1,2,-3,0
11179,11967,0,-5,-1,2,9,-1,1,-1
11179,11967,-1,-6,0,-5,-6,-9,-1,-4
11201,11990,1,4,1,6,9,5,0,1
11201,11990,-2,5,0,6,7,2,-1,1
11202,11990,-1,-6,-3,-9,-7,-4,-2,1
11202,11990,-1,-5,0,7,1,-3,0,-4
11216,12004,1,11,1,-10,-11,9,3,1
11216,12004,-1,0,0,5,-10,2,-1,1
11216,12005,-1,-3,0,2,-13,-4,-1,1
11216,12005,-3,-5,0,-3,-8,-8,-2,-7
11239,12027,-1,0,2,8,2,3,3,-1
11239,12027,1,1,0,1,0,1,3,0
11239,12027,1,-2,-3,-4,-9,2,1,1
11239,12027,-1,-7,0,-5,-14,-17,-2,-4
11261,12050,-2,1,1,5,-1,3,0,0
11262,12050,1,2,0,-3,10,3,-2,3
11262,12050,2,-6,-2,0,-9,1,-1,-1
11262,12050,-2,-11,0,-3,-8,-13,-1,-3
11275,12064,1,4,0,7,-7,5,0,-1
11276,12064,1,0,0,4,-1,4,-2,1
11276,12065,-1,-4,-1,-17,-12,-2,0,1
11276,12065,-2,-5,-1,-9,-10,-8,-2,-3
11299,12087,0,2,0,4,12,6,-1,0
11299,12087,1,0,-1,-3,3,-1,0,2
11306,12094,0,-2,2,2,-9,-4,-1,2
11306,12094,2,-8,0,-4,0,-8,1,-6
11329,12117,-2,-2,-1,1,5,4,-2,2
11329,12117,-3,5,-2,-1,-16,-2,0,1
11330,12117,0,-7,-1,2,-3,-5,0,0
11330,12117,1,-5,-1,-7,1,-2,-1,-3
11336,12124,1,3,0,1,-5,1,-1,0
11336,12124,-1,-6,-3,-1,-7,1,2,1
11336,12124,-1,-2,0,-1,-9,-5,-3,0
11336,12124,-1,-11,-2,11,4,-7,-3,-3
11359,12147,0,0,0,-5,12,5,-3,0
11359,12147,2,1,0,-2,-11,-2,1,1
11359,12148,0,-9,-3,1,-1,-4,-1,0
11359,12148,-4,-2,2,2,1,-3,-1,-7
11380,12169,1,6,0,-7,0,2,0,1
11380,12169,0,0,-3,-8,3,2,-3,1
11388,12177,0,-5,1,5,0,0,0,3
11388,12177,-1,-5,-2,2,2,-7,2,-4
11396,12183,-3,-1,0,4,-7,0,1,4
11396,12183,0,1,0,3,12,2,-2,2
11396,12185,0,-8,0,-10,-10,-8,-3,-2
11396,12185,-1,-9,0,-4,7,-4,-2,-4
11418,12207,1,4,-3,-5,16,5,-1,-4
11418,12207,2,4,2,2,16,5,4,6
11419,12207,-1,-9,-1,2,-5,-6,-1,-5
11419,12207,-1,-3,1,-3,4,-8,1,-5
11441,12229,0,2,0,1,5,4,-1,0
11441,12229,0,10,1,7,20,7,0,3
11442,12230,0,-9,-1,-4,-5,-6,-2,0
11442,12230,-1,-3,0,-3,-6,-8,0,-1
11464,12252,1,-2,-1,2,-12,1,2,1
11464,12252,-1,3,-3,4,0,2,0,-2
11465,12252,-1,-10,2,5,-7,-3,-2,0
11465,12252,-2,-5,0,-7,1,-8,-3,-4
11478,12267,-2,6,-1,-1,6,6,2,4
11478,12267,-1,4,-2,-4,-1,1,1,3
11479,12267,-1,-9,0,4,-13,-6,-1,-1
11479,12267,2,-7,0,0,-2,-7,0,-2
11501,12290,1,4,0,0,4,4,1,3
11501,12290,0,7,3,0,1,5,-1,0
11502,12290,-2,-5,-2,-9,-9,-10,3,-1
11502,12290,-2,-1,-4,-2,2,-4,0,-4
11516,12304,1,7,2,2,17,6,1,-1
11516,12304,-1,-1,-2,0,-1,2,-2,0
11516,12304,1,-8,0,-2,-5,-6,-4,0
11516,12304,0,-4,2,2,9,-5,-1,-5
11538,12327,1,0,-4,-4,3,2,2,3
11538,12327,-2,4,1,-4,15,7,0,2
11539,12327,0,-7,-2,2,-11,-9,-1,0
11539,12327,-2,-5,-1,-7,4,-6,-3,-5
11562,12350,0,3,-2,3,5,3,-1,0
11562,12350,0,3,3,6,-9,3,-1,2
11562,12350,-2,-6,-3,-16,-12,-5,-1,0
11562,12350,-1,-1,0,-5,4,-6,-2,-4
11584,12372,2,1,1,4,5,5,-1,2
11584,12372,2,3,1,2,5,2,-2,1
11585,12372,-3,-9,2,15,-4,-7,-4,-2
11585,12372,-2,-3,-2,-18,-1,-3,1,-3
11606,12394,-1,2,-2,-3,-2,0,0,1
11606,12394,2,2,-3,1,2,2,1,0
11607,12396,-2,-10,-2,0,-12,-5,-4,-1
11607,12396,-2,1,-2,1,-2,-6,1,-3
11621,12410,-1,2,-1,-2,-8,3,0,-1
11621,12410,-1,0,0,-4,2,1,3,-1
11622,12410,0,-9,-1,3,-18,-11,-2,-2
11622,12410,0,-5,-2,-1,-5,-6,-3,-3
11636,12424,1,2,2,1,-1,5,1,1
11636,12424,-2,3,0,2,-7,2,0,0
11637,12425,0,-10,-1,-4,-14,-12,-6,0
11637,12425,-1,-5,0,-6,3,0,0,-4
11658,12446,-2,3,-3,0,-1,0,-1,1
11658,12446,1,0,1,1,-1,3,0,2
11659,12446,1,-7,1,0,-7,-6,-3,-1
11659,12446,-2,-1,-2,1,8,-4,-2,-4
11681,12469,-2,4,1,7,4,4,1,-1
11681,12469,0,3,-4,-4,-9,1,-3,1
11688,12476,-1,-10,-1,-3,-5,-5,0,-2
11688,12476,-2,-1,0,2,5,-3,1,-3
11697,12485,0,0,0,9,9,5,0,2
11697,12485,1,4,1,0,-1,4,-2,1
11703,12492,-1,-8,0,-5,-5,-8,-2,-1
11703,12492,-2,0,1,3,6,-5,2,-5
11718,12507,-2,3,-1,1,-1,1,2,2
11718,12507,-1,3,-3,1,7,4,1,3
11719,12507,1,-5,0,-5,-5,-9,0,-2
11719,12507,-1,-1,0,0,5,-3,0,-3
11741,12530,3,1,0,-2,2,2,1,0
11741,12530,-2,7,0,-2,31,10,0,2
11742,12530,-2,-5,1,-7,-6,-7,-2,0
11742,12530,1,-6,-2,4,3,-8,-4,-4
11755,12544,0,4,-2,-6,7,1,0,-2
11755,12544,-1,9,0,2,19,11,2,3
11763,12551,-2,-10,2,9,0,-4,-1,1
11763,12551,-3,-4,0,-5,0,-10,-2,-3
11778,12566,2,3,-4,-7,-1,3,-3,-1
11778,12566,2,10,0,-2,15,9,2,2
11779,12568,-2,-7,0,-1,-3,-4,-1,0
11779,12568,-2,-6,-4,3,4,-5,0,-3
11801,12590,0,0,1,4,7,4,2,1
11801,12590,1,14,-2,3,19,10,3,4
11802,12591,0,-8,1,-2,-7,-3,-2,-1
11802,12591,-1,-7,0,-2,-1,-10,0,-5
11815,12603,0,2,0,2,-2,1,0,1
11815,12603,-1,9,1,2,6,10,0,1
11823,12612,-3,-11,-2,-3,-15,-8,-4,-2
11823,12612,-1,-2,1,-7,3,-8,-1,-7
11838,12626,-3,6,-1,-4,2,1,2,-1
11838,12626,2,10,0,5,10,15,1,5
11839,12627,0,-9,-2,8,-3,-5,-2,2
11839,12627,-1,-7,1,-6,-2,-3,1,-6
11861,12650,-3,5,-2,-20,3,1,-1,-3
11862,12650,3,12,-2,5,6,13,1,4
11862,12650,2,-8,-1,1,-8,-5,-1,0
11862,12650,-2,0,-1,-3,7,1,-3,-6
11884,12672,2,2,-1,6,5,3,0,1
11884,12672,-1,4,-3,-2,2,6,0,4
11885,12672,-4,-11,-1,-2,-9,-10,-4,-1
11885,12672,-1,3,1,0,12,-4,2,-2
11898,12686,0,3,2,4,10,3,2,-2
11898,12686,0,10,0,5,11,11,0,2
11899,12687,3,-9,-2,-3,-4,-11,-3,-3
11899,12687,-2,1,-2,-3,8,1,0,-3
11921,12709,2,5,0,0,7,4,2,4
11921,12709,1,10,-3,-6,6,10,0,6
11922,12710,-2,-11,0,-1,-12,-9,1,-4
11922,12710,-1,2,-1,-1,16,-2,-1,-6
11935,12723,0,8,-2,8,8,6,0,1
11935,12723,-1,13,0,9,11,12,2,2
11943,12731,0,-14,-2,-5,-16,-9,-3,1
11943,12731,0,7,0,-4,9,3,-1,-6
11958,12746,0,6,-1,-4,19,8,-1,-2
11958,12746,1,13,4,11,14,13,2,4
11959,12747,-1,-14,-3,-9,-12,-12,-1,0
11959,12747,0,1,-1,2,19,4,-2,-7
11981,12769,-2,7,-2,-1,-5,8,2,0
11981,12769,3,13,-1,6,14,18,1,4
11982,12770,1,-13,-1,0,-15,-9,-1,-1
11982,12770,-2,7,-2,-2,3,2,1,-7
11995,12783,0,9,0,0,2,10,2,-2
11995,12783,0,18,-1,0,11,19,2,4
12019,12807,0,-16,1,2,-20,-15,-4,-1
12019,12807,-2,4,0,-5,2,3,1,-5
12026,12815,1,8,0,4,10,9,-2,2
12026,12815,1,17,0,2,10,18,2,9
12027,12816,-1,-15,-2,-1,-13,-12,-4,-3
12027,12816,0,9,-1,-9,13,2,1,-6
12049,12837,1,10,-1,3,-3,8,2,0
12049,12837,2,16,1,1,9,15,4,6
12050,12838,-3,-15,2,-1,-12,-14,-3,0
12050,12838,-2,6,-1,2,3,3,0,-4
12064,12852,1,6,-1,2,4,8,-2,2
12064,12852,1,15,0,2,21,15,3,6
12065,12853,-3,-12,0,-2,-10,-12,-4,-4
12065,12853,-1,8,-1,1,18,9,-2,-2
12078,12867,1,10,0,-1,23,9,-2,5
12078,12867,3,17,-3,3,8,14,1,5
12079,12867,-1,-10,0,0,1,-12,-1,-2
12079,12867,0,8,0,-2,13,6,1,-3
12101,12890,2,6,-1,4,4,10,4,-2
12101,12890,4,13,2,3,16,15,-1,5
12102,12890,6,50,1,12,37,55,6,26
12102,12890,-9,-22,-2,-16,-32,-13,-15,-29
12131,12920,-7,6,0,-12,21,-9,0,-29
12131,12920,4,11,2,13,24,9,15,17
12132,12921,9,-10,-1,20,-21,4,1,44
12132,12921,-8,-7,-2,-29,-9,2,-16,-35
12138,12927,-3,27,-1,-11,40,13,0,-26
12138,12927,3,9,-3,9,31,3,13,8
12139,12927,8,-8,1,17,-7,-2,2,42
12139,12927,-7,-6,-3,-17,-15,-1,-11,-23
12162,12950,-9,19,0,-14,16,5,-7,-33
12162,12950,3,21,-1,10,39,13,17,16
12162,12950,7,-15,1,12,-20,-18,-1,38
12163,12950,-6,-11,-2,-15,-1,-9,-15,-24
12191,12980,-6,36,-2,-13,40,26,-2,-28
12191,12980,6,30,1,25,42,20,19,27
12192,12980,3,-24,-3,9,-14,-37,-6,20
12192,12980,-12,-8,-2,-26,5,-9,-14,-27
12198,12986,-2,49,0,-10,42,43,2,-12
12198,12986,14,27,2,30,36,21,20,34
12199,12987,1,-35,-1,-5,-14,-43,-14,3
12199,12987,-9,8,-2,-27,48,-1,-4,-21
12221,13009,0,47,-1,5,43,56,6,-4
12221,13009,13,28,1,29,32,22,18,30
12222,13010,-1,-22,3,0,-3,-35,-9,-11
12222,13010,-9,21,-1,-17,42,3,-4,-15
12251,13039,0,40,-1,-4,40,48,4,1
12251,13039,9,26,-2,27,32,20,14,23
12252,13040,-4,-13,-3,-14,2,-33,-11,-15
12252,13040,-9,24,-2,-10,47,3,-3,-10
12258,13047,0,36,2,0,35,38,4,0
12258,13047,8,26,1,19,24,21,12,21
12259,13047,-4,-6,0,-8,6,-27,-12,-20
12259,13047,-5,32,2,-13,53,9,1,-11
12281,13069,1,34,1,4,32,35,4,4
12282,13069,8,26,0,22,22,21,10,18
12282,13070,-7,0,-1,-13,12,-19,-13,-23
12282,13070,-5,33,-2,-9,60,9,1,-10
12304,13092,1,31,1,6,32,34,3,6
12304,13092,10,27,-2,14,21,21,6,14
12305,13092,-6,3,0,-10,9,-13,-11,-25
12305,13092,-3,32,-2,-9,43,13,0,-10
12318,13106,0,29,-3,8,32,29,3,7
12318,13106,6,26,4,17,15,21,9,11
12319,13108,-2,6,-1,-7,11,-6,-12,-24
12319,13108,-3,30,0,0,47,15,3,-7
12341,13130,1,26,-3,2,31,28,1,5
12341,13130,4,23,0,14,13,20,6,8
12342,13130,-5,9,-3,-10,16,-1,-12,-28
12342,13130,1,33,-1,-7,46,17,2,-6
12364,13152,-1,24,0,9,27,25,7,8
12364,13152,8,23,-3,10,17,19,6,6
12365,13152,-3,12,-1,-10,15,2,-10,-26
12365,13152,1,31,0,8,37,21,6,-6
12378,13166,2,23,1,-8,27,23,2,7
12378,13166,3,22,-1,7,11,20,1,6
12379,13167,-5,12,-1,-11,17,5,-12,-28
12379,13167,0,30,2,0,45,21,5,-6
12400,13189,4,22,1,5,26,21,3,11
12400,13189,4,20,-1,8,19,19,-1,5
12408,13196,-7,14,-1,-21,14,5,-12,-27
12408,13196,-2,42,0,3,42,22,5,-5
12424,13212,1,21,0,7,28,19,3,6
12424,13212,4,21,1,9,9,19,2,4
12425,13212,-8,14,-3,-7,18,7,-10,-27
12425,13212,1,42,0,-5,39,22,3,-5
12439,13227,3,23,-3,-2,25,18,3,7
12439,13227,4,21,0,9,11,18,0,2
12439,13227,-6,15,1,-10,14,8,-8,-23
12439,13227,1,37,0,2,48,21,4,-3
12461,13249,1,22,2,7,30,16,1,4
12461,13249,1,17,3,4,4,17,-2,2
12462,13251,-7,15,-1,-8,15,8,-6,-21
12462,13251,1,40,-2,-2,31,24,2,-3
12484,13272,3,22,-2,5,29,16,0,8
12484,13272,1,18,-1,7,7,16,-1,2
12485,13273,-7,17,0,-10,16,10,-7,-23
12485,13273,1,39,1,4,35,20,4,-3
12498,13286,2,22,-1,3,27,15,3,8
12498,13286,2,14,-3,-1,1,16,-3,3
12506,13294,-8,16,-1,-12,21,10,-9,-25
12506,13294,2,43,-3,2,34,23,5,3
12521,13310,1,21,-1,6,25,14,1,7
12521,13310,3,14,0,9,6,15,-2,3
12522,13310,-8,16,-2,-20,20,11,-7,-22
12522,13310,2,35,-2,2,40,25,4,-3
12544,13332,2,23,-1,5,27,15,5,7
12544,13332,2,14,-1,-1,-15,15,-6,2
12544,13333,-5,15,0,-14,17,11,-7,-21
12544,13333,2,36,1,7,25,27,2,-2
12558,13346,-1,22,1,8,29,15,2,9
12558,13346,-1,9,-1,-4,-4,12,-3,1
12559,13347,-4,16,-3,-14,18,10,-6,-20
12559,13347,1,36,0,7,24,31,5,-2
12581,13370,3,21,-1,2,26,15,2,7
12581,13370,1,11,-1,6,-4,14,-5,2
12582,13370,-4,15,-1,-15,20,12,-5,-18
12582,13370,-1,33,-1,6,29,28,6,-1
12611,13399,4,22,0,11,24,16,1,7
12611,13399,0,8,1,1,19,9,-5,2
12612,13400,-4,15,1,-10,20,11,-3,-18
12612,13400,-1,35,0,5,26,34,5,-1
12618,13406,2,21,-2,2,23,15,0,8
12618,13406,0,9,-2,-2,-16,11,-6,2
12619,13407,-3,15,0,-7,21,12,-5,-19
12619,13407,3,35,1,2,38,30,2,-1
12641,13429,1,22,1,1,23,17,4,6
12641,13429,1,8,-1,1,4,8,-4,2
12642,13430,-5,14,-2,-18,20,12,-7,-20
12642,13430,3,35,-2,5,27,26,3,0
12664,13452,-1,21,2,2,24,15,1,7
12664,13452,-1,8,-1,-2,7,7,-5,1
12665,13452,-6,14,-2,-11,19,11,-4,-17
12665,13452,1,35,3,2,31,31,3,-1
12678,13466,3,22,-1,9,26,17,1,5
12678,13466,-1,8,-2,-3,-12,6,-5,1
12686,13474,-6,14,-1,-8,18,11,-2,-20
12686,13474,0,34,-2,-2,27,32,2,1
12701,13489,1,22,-1,5,23,16,3,4
12701,13489,0,10,4,5,3,7,-6,1
12702,13490,-5,15,0,-10,22,10,-5,-18
12702,13490,0,36,-4,-3,31,26,0,-1
12724,13512,2,23,1,0,24,16,1,6
12724,13512,-1,10,-1,1,2,5,-5,1
12725,13512,-5,14,0,-13,21,10,-5,-15
12725,13512,1,31,-1,8,29,28,2,1
12746,13534,2,22,-1,0,25,16,0,6
12746,13534,-1,1,0,-3,-17,5,-7,1
12747,13536,-6,16,0,-10,18,10,-3,-14
12747,13536,2,32,2,7,19,28,5,-1
12761,13549,1,23,0,1,27,15,4,6
12761,13549,-1,4,-2,-8,-9,6,-5,0
12762,13550,-6,15,-2,-8,20,10,-5,-15
12762,13550,3,33,2,9,25,27,3,1
12791,13580,1,22,-1,8,23,16,2,6
12791,13580,-2,-4,0,-6,-13,5,-7,2
12792,13581,-5,16,1,-13,18,10,-3,-13
12792,13581,0,31,0,10,35,26,3,0
12806,13594,4,22,2,4,25,15,3,9
12806,13594,-2,-8,-1,-2,-24,5,-7,1
12808,13596,-5,15,-2,-3,18,10,-4,-12
12808,13596,1,30,-2,3,24,29,3,3
12821,13610,2,22,-3,-3,26,16,3,8
12821,13610,-2,-8,2,-5,-7,2,-5,1
12823,13611,-5,15,-1,-6,19,10,-2,-11
12823,13611,-1,30,2,8,28,28,3,2
12851,13639,2,21,0,9,23,16,4,8
12851,13639,0,-12,0,-10,4,-4,-7,0
12853,13641,-7,15,-1,-13,20,10,-5,-11
12853,13641,3,29,3,2,36,24,2,0
12857,13645,0,20,0,5,23,16,2,9
12857,13645,-3,-7,0,-4,-4,-2,-6,0
12866,13654,-3,15,-1,-11,21,9,-3,-11
12866,13654,0,30,0,-1,27,29,1,3
12881,13669,2,20,2,5,26,17,1,10
12881,13669,-1,-12,-1,-2,8,-7,-8,0
12883,13671,-4,15,-2,-14,20,9,-3,-9
12883,13671,1,32,-2,-2,27,31,0,5
12904,13692,2,19,0,10,23,17,5,9
12904,13692,-3,-1,-1,-5,-5,-9,-7,0
12905,13694,-3,15,0,-16,20,9,-1,-10
12905,13694,2,30,0,8,27,28,2,3
12917,13706,2,21,-2,3,27,16,-1,8
12918,13706,-2,-2,0,-2,8,-8,-8,-1
12926,13715,-3,15,-1,-6,28,10,-2,-10
12926,13715,2,30,-2,3,28,29,4,-1
12941,13730,2,20,-1,3,24,17,2,4
12941,13730,0,-2,2,-3,0,-8,-8,-2
12943,13731,-5,17,-3,-11,25,10,1,-9
12943,13731,-1,27,-1,-3,22,25,2,2
12964,13752,-1,20,-2,13,26,15,2,4
12964,13752,-2,-1,-1,-6,8,-9,-7,-2
12965,13753,-3,18,0,-12,29,11,0,-8
12965,13753,2,30,-2,8,29,28,1,4
12978,13766,-1,19,-1,-4,24,15,-3,-9
12978,13766,-3,35,-4,-11,30,29,-1,0
12987,13776,13,18,3,37,19,12,22,27
12987,13776,4,-17,-1,13,-19,-14,0,15
13009,13797,-8,-41,-1,-21,-61,-39,-22,-48
13009,13797,-26,-23,-2,-60,13,-37,-17,-93
13011,13798,18,11,0,51,42,0,46,45
13011,13798,13,-56,1,22,-63,-24,2,52
13024,13812,-1,-62,-1,0,-60,-60,-9,-10
13024,13812,-26,-41,-2,-55,4,-62,-23,-69
13025,13814,13,12,1,36,52,6,34,26
13025,13814,15,-34,-1,20,-32,-11,8,51
13054,13842,-3,-41,-1,-4,-38,-36,-16,-1
13054,13842,-23,-27,-1,-51,14,-39,-21,-63
13055,13843,8,27,1,26,57,17,32,21
13055,13843,12,-15,-1,34,-17,4,4,42
13061,13850,-2,-29,-2,-11,-24,-21,-12,-5
13061,13850,-17,-11,-3,-38,13,-31,-14,-50
13063,13851,10,23,1,26,48,15,22,21
13063,13851,6,-5,0,16,-18,6,1,33
13099,13887,-4,-12,-1,-8,-36,-18,-10,-10
13099,13887,-10,-10,-3,-24,21,-23,-5,-37
13100,13889,6,19,-2,20,29,13,18,18
13100,13889,2,-10,2,9,-16,3,-2,19
13106,13894,-1,-11,-2,-6,-23,-9,-7,-4
13106,13894,-9,-9,-1,-17,4,-14,-6,-25
13108,13896,4,10,1,6,12,6,11,8
13108,13896,4,-6,1,9,-8,3,1,13
13121,13910,0,-5,1,-1,-10,-4,-4,-3
13121,13910,-7,-10,-2,-12,-10,-17,-6,-16
13123,13911,0,8,-3,3,13,5,7,4
13123,13911,3,-1,2,11,-7,5,4,11
13145,13933,-1,-7,-3,4,-11,-4,-3,1
13145,13933,-6,-14,-3,-25,-14,-15,-8,-15
13146,13934,2,7,-1,2,22,5,7,2
13146,13934,2,-17,1,11,-21,-10,-1,6
13166,13955,0,7,2,-3,-5,4,-1,0
13166,13955,-1,30,-1,2,38,30,3,-1
13168,13956,-1,-28,-4,-4,-50,-24,-5,0
13168,13956,-8,-52,-2,-19,-18,-61,-9,-34
13181,13969,1,40,0,4,53,36,11,6
13181,13969,14,9,2,39,-33,24,5,65
13189,13977,-18,-1,-1,-41,-21,1,-30,-52
13189,13977,-7,66,1,-10,61,47,6,-32
13211,14000,5,20,3,11,34,16,16,21
13211,14000,17,-24,0,34,-30,-3,3,56
13213,14001,-18,-16,-1,-43,-20,-2,-29,-32
13213,14001,-9,60,-2,-15,48,54,0,-30
13227,14015,9,52,-2,16,75,40,22,26
13227,14015,13,-32,1,29,-26,-22,0,51
13228,14016,-15,-22,-2,-42,5,-26,-26,-30
13228,14016,-9,61,-2,-25,60,60,0,-29
13241,14029,12,63,0,31,78,55,29,48
13241,14029,9,-53,2,21,-33,-59,-8,33
13248,14035,-18,-16,-2,-37,35,-28,-23,-37
13248,14035,-1,72,-3,-10,70,69,7,-12
13271,14059,16,51,0,34,57,47,25,49
13271,14059,1,-51,0,5,-25,-57,-14,11
13273,14061,-18,9,0,-34,60,-5,-13,-34
13273,14061,0,64,1,7,59,67,9,5
13286,14074,14,37,0,35,42,30,21,38
13286,14074,-1,-41,-1,-6,-5,-49,-19,-8
13288,14076,-13,19,-5,-25,70,8,-6,-20
13288,14076,3,46,-1,6,42,52,10,10
13301,14089,9,31,-1,23,37,23,13,24
13301,14089,-4,-17,0,-5,12,-28,-14,-12
13307,14095,-8,20,-1,-16,55,13,0,-11
13307,14095,0,37,-3,0,37,40,7,4
13331,14119,9,37,0,18,44,27,14,19
13331,14119,-3,-6,0,-8,13,-20,-12,-13
13333,14121,-7,15,-1,-6,49,8,-4,-9
13333,14121,0,33,1,2,39,34,5,2
13346,14134,7,39,2,22,40,33,13,17
13346,14134,-4,-2,-2,-8,14,-16,-8,-11
13348,14136,-6,20,-3,-11,47,8,0,-12
13348,14136,2,35,0,-4,38,35,3,6
13361,14149,9,33,-1,15,35,28,6,17
13361,14149,-4,1,2,-9,17,-18,-12,-15
13367,14155,-2,29,5,0,45,13,4,-10
13367,14155,4,32,-2,5,34,35,2,8
13384,14172,6,31,-1,10,31,26,8,13
13384,14172,-3,7,-2,-11,22,-11,-12,-19
13385,14173,-3,35,0,3,46,16,6,-6
13385,14173,2,29,0,6,31,29,2,11
13406,14194,4,28,0,9,29,23,7,9
13406,14194,-8,12,-3,-9,24,-7,-10,-22
13412,14200,-2,38,-1,-5,51,15,3,-4
13413,14200,1,26,2,9,33,24,4,8
13421,14209,5,30,0,14,29,25,5,8
13421,14209,-4,16,0,-15,22,0,-11,-19
13428,14216,1,40,-1,-1,59,15,5,-6
13428,14216,3,26,3,9,31,23,2,7
13444,14231,8,30,1,14,33,23,1,7
13444,14231,-3,16,-3,-11,23,2,-9,-21
13445,14234,0,42,2,-5,69,15,5,-5
13445,14234,2,26,0,2,37,21,3,8
13466,14254,3,29,-1,13,23,24,5,7
13466,14254,-6,19,2,-10,23,5,-9,-17
13468,14256,0,43,-1,-1,62,16,5,-5
13468,14256,3,26,-3,12,32,21,3,8
13481,14269,3,28,-1,8,22,22,1,5
13481,14269,-6,19,0,-13,23,8,-10,-22
13488,14276,0,39,-1,3,48,19,7,-3
13488,14276,2,26,0,6,35,20,2,8
13504,14292,5,27,2,7,25,21,-1,4
13504,14292,-9,21,-2,-17,24,10,-7,-21
13505,14294,0,41,2,8,52,24,7,-3
13505,14294,3,24,0,12,33,19,-1,5
13527,14315,4,27,-1,5,20,22,1,3
13527,14315,-4,21,-2,-14,24,12,-7,-18
13528,14316,3,39,0,5,53,24,6,-3
13528,14316,-1,24,1,6,31,19,5,8
13549,14337,2,27,-2,5,22,21,2,2
13549,14337,-4,22,2,-11,25,12,-8,-23
13550,14339,-1,37,-2,1,43,27,7,-2
13550,14339,1,24,-1,5,33,18,2,10
13564,14352,1,25,-1,9,18,22,2,3
13564,14352,-4,22,-2,-11,24,14,-8,-22
13565,14353,1,44,1,5,57,27,3,-3
13565,14353,4,24,0,2,32,19,2,10
13586,14374,4,25,2,8,23,22,2,4
13586,14374,-6,23,-1,-9,23,14,-6,-23
13588,14376,2,36,-1,3,48,27,6,-2
13588,14376,4,24,-3,5,34,19,5,7
13609,14397,1,24,4,8,24,21,-3,3
13609,14397,-6,22,0,-11,24,15,-7,-24
13610,14399,4,38,-2,3,50,31,7,-2
13610,14399,0,23,1,3,32,18,4,11
13624,14412,4,24,1,10,21,23,2,3
13624,14412,-6,22,0,-11,25,15,-8,-21
13625,14413,2,47,-1,7,45,35,6,-2
13625,14413,0,26,-3,2,32,19,0,8
13646,14435,1,25,2,4,19,22,0,2
13646,14435,-5,21,-2,-17,26,15,-11,-19
13648,14436,2,45,-2,3,45,26,6,-1
13648,14436,4,25,2,6,31,18,2,10
13660,14448,1,25,-1,6,16,20,0,3
13660,14448,-6,21,1,-5,25,15,-7,-20
13669,14457,3,47,0,-3,36,28,4,-2
13669,14457,0,26,1,3,33,18,2,7
13684,14472,4,24,-2,5,21,19,1,3
13684,14472,-5,22,-2,-7,23,16,-9,-21
13685,14474,3,48,0,7,47,33,5,-1
13685,14474,2,26,-1,-9,37,18,-2,7
13714,14502,3,25,-2,8,9,20,-1,3
13714,14502,-8,22,-2,-11,22,16,-3,-19
13721,14508,1,51,3,9,33,30,5,-1
13721,14508,2,27,-1,3,33,18,4,9
13721,14509,0,22,2,7,2,19,-4,2
13721,14509,-5,23,-1,-12,24,16,-9,-20
13736,14524,1,44,1,4,34,28,3,-2
13737,14524,4,26,2,6,33,18,4,7
13744,14532,0,23,2,2,0,18,-2,3
13744,14532,-7,22,-1,-14,25,17,-5,-19
13745,14533,0,44,-1,6,37,31,4,-2
13745,14533,1,28,0,7,34,18,2,10
13766,14554,3,18,0,3,2,18,-4,3
13766,14554,-8,21,-2,-18,22,15,-9,-18
13768,14556,2,44,0,-2,40,32,6,-1
13768,14556,1,27,-1,8,32,18,2,11
13780,14568,-1,16,-1,8,2,18,-7,3
13780,14568,-7,20,0,-20,23,16,-4,-18
13796,14584,0,44,1,1,37,36,1,-1
13797,14584,0,28,0,11,35,19,0,8
13804,14591,3,17,-1,-13,-13,18,-5,3
13804,14591,-6,20,1,-8,23,15,-4,-22
13805,14594,0,47,0,7,38,38,5,1
13805,14594,3,28,0,5,32,19,2,9
13827,14615,-5,14,-2,3,-4,17,-5,3
13827,14615,-5,19,-3,-20,22,16,-6,-19
13828,14616,2,42,-2,6,27,34,4,0
13828,14616,4,26,0,5,31,20,-1,11
13840,14628,1,11,-3,-3,5,11,-5,3
13840,14628,-5,20,1,-7,25,16,-4,-17
13856,14644,2,39,-1,-1,29,38,2,1
13856,14644,3,26,-4,0,29,19,1,9
13864,14652,-1,15,1,3,-10,14,-6,3
13864,14652,-7,20,1,-17,25,15,-6,-16
13865,14653,3,44,-2,2,27,38,5,2
13865,14653,1,27,0,10,27,22,1,6
13887,14674,1,9,-2,-9,29,8,-5,3
13887,14674,-6,19,0,-6,26,15,-5,-13
13888,14676,1,40,1,5,25,35,1,2
13888,14676,3,25,-2,-4,28,19,1,8
13916,14705,1,13,1,10,-20,11,-5,2
13916,14705,-5,18,-2,-12,26,14,-6,-13
13918,14706,3,36,-1,4,34,32,3,4
13918,14706,0,28,-1,-1,27,22,0,8
13924,14712,-2,10,-1,3,-4,7,-5,3
13924,14712,-4,20,-3,-16,22,15,-6,-11
13925,14713,3,40,2,14,27,37,4,1
13925,14713,2,26,1,6,28,19,0,6
13946,14734,-2,7,0,-3,3,10,-6,3
13946,14734,-7,18,-2,-15,23,13,-5,-11
13948,14736,0,39,-2,10,33,35,3,3
13948,14736,2,27,1,11,29,21,2,7
13969,14757,2,12,-2,-1,16,6,-4,3
13969,14757,-6,20,-2,-8,24,14,-4,-10
13970,14759,1,35,1,7,31,33,2,1
13971,14759,2,27,1,2,28,20,1,9
13984,14772,1,-1,-1,-4,3,10,-9,3
13984,14772,-6,18,1,-11,26,13,-3,-9
13985,14773,1,41,-2,0,31,36,4,2
13985,14773,0,27,-2,-2,27,20,0,8
14021,14809,-3,3,1,-2,2,7,-5,3
14021,14809,-2,19,-1,-9,26,14,-1,-9
14023,14811,-1,36,-2,7,29,31,3,2
14023,14811,2,27,3,8,30,19,3,9
14029,14817,-3,-2,-2,-7,-6,9,-8,3
14029,14817,-6,19,-1,-6,23,14,-2,-9
14030,14819,4,40,0,7,28,35,4,1
14030,14819,3,26,-1,13,33,20,2,8
14044,14831,-3,2,-1,-15,7,9,-7,3
14044,14831,-5,20,1,-7,24,14,-6,-9
14045,14834,2,34,2,2,32,35,2,3
14045,14834,3,26,0,4,30,21,2,9
14066,14854,-1,0,0,1,-5,9,-8,3
14066,14854,-6,20,-3,-9,26,14,-2,-10
14074,14861,1,35,-1,-7,32,37,1,4
14074,14861,1,25,0,5,31,21,2,8
14089,14877,-3,-4,0,1,11,-1,-6,3
14089,14877,-3,20,0,-14,28,14,-6,-10
14090,14878,0,34,-2,12,29,34,0,6
14090,14878,1,25,1,1,27,21,1,9
14103,14892,-1,-3,4,-7,2,-1,-9,1
14103,14892,-6,20,-4,-8,27,15,-3,-9
14110,14898,4,34,1,7,31,37,3,7
14110,14898,1,25,-2,0,31,21,4,13
14134,14922,-1,-3,0,0,9,-9,-8,0
14134,14922,-2,20,1,-11,26,14,-2,-6
14135,14923,4,33,2,7,28,35,1,5
14135,14923,2,24,-3,3,30,20,4,10
14149,14937,-2,-6,0,-8,11,-9,-6,0
14149,14937,-7,21,-2,-10,26,14,0,-5
14150,14938,-1,31,1,8,32,34,3,5
14150,14938,5,24,-1,9,30,21,0,8
14164,14952,-2,-4,-1,-11,11,-10,-7,0
14164,14952,-6,20,0,-7,27,13,2,-5
14170,14958,1,33,-2,4,32,33,1,4
14170,14958,1,24,0,3,30,20,2,9
14194,14982,-2,-2,-6,-10,0,-10,-11,0
14194,14982,-5,20,-1,-10,25,14,-2,-3
14195,14983,1,30,-1,5,28,28,4,4
14195,14983,1,24,0,12,31,20,0,8
14216,15005,-3,-5,0,-4,20,-12,-8,0
14216,15005,-6,20,-3,-10,34,14,-1,-3
14218,15006,1,32,-2,7,29,32,1,3
14218,15006,2,24,0,5,29,18,1,8
14223,15011,-5,-11,-1,-4,12,-12,-9,-1
14223,15011,-4,20,2,-4,39,14,0,-3
14230,15019,4,28,2,-5,32,29,2,6
14230,15019,2,24,-2,9,32,18,1,8
14247,15035,-1,-9,-1,-9,7,-8,-9,-1
14247,15035,-6,20,0,-6,39,14,2,-2
14248,15036,0,28,-1,4,29,31,3,6
14248,15036,3,24,1,9,34,18,0,8
14269,15057,-5,-12,1,-12,7,-7,-8,-1
14269,15057,-4,20,-4,-6,39,14,-1,-3
14270,15059,1,30,-1,5,30,27,3,8
14270,15059,1,25,-2,4,33,18,3,9
14299,15087,-4,-6,1,-5,8,-4,-8,0
14299,15087,-3,19,0,-8,39,15,1,-2
14300,15088,4,29,0,5,30,29,2,6
14300,15088,3,24,0,6,35,18,2,8
14306,15095,-2,-8,-4,-13,11,-3,-11,-1
14306,15095,-3,20,-2,-6,38,15,3,-2
14308,15096,1,29,-2,6,30,25,-3,8
14308,15096,1,25,0,5,32,17,4,8
14329,15117,-5,-4,0,-5,12,-9,-6,-4
14329,15117,-3,19,-2,-5,37,14,2,-2
14330,15119,3,28,0,4,32,31,2,5
14330,15119,2,24,1,6,29,19,5,8
14351,15139,-5,-2,-3,-5,15,-9,-9,-5
14351,15139,-3,20,-1,-5,37,14,1,-2
14353,15141,1,27,1,10,28,30,0,5
14353,15141,3,25,0,9,35,19,4,10
14367,15155,-4,0,-1,-9,18,-15,-10,-7
14367,15155,-1,19,-3,-5,38,13,3,-3
14368,15156,2,27,0,9,29,30,4,8
14368,15156,3,25,0,8,34,20,2,7
14389,15177,-3,3,2,-4,21,-13,-11,-9
14389,15177,-3,23,0,-1,30,14,7,-3
14390,15178,2,28,-2,-6,29,33,1,8
14390,15178,2,25,-4,1,35,19,3,10
14403,15190,-5,3,1,-8,20,-16,-10,-9
14403,15190,0,22,1,0,33,14,3,-3
14411,15200,2,30,-1,5,29,29,5,9
14411,15200,4,26,2,5,32,19,5,6
14425,15213,-5,1,-3,-13,21,-17,-9,-11
14426,15213,-2,24,2,-1,28,14,3,-2
14441,15230,1,28,1,8,28,27,5,7
14441,15230,2,26,-2,3,32,19,3,9
14449,15237,-3,2,-2,-10,24,-15,-11,-7
14449,15237,-3,26,1,-1,38,13,2,-2
14450,15238,3,28,-1,3,26,28,1,10
14450,15238,3,26,0,13,30,19,3,9
14472,15260,-4,6,1,-10,25,-7,-8,-9
14472,15260,-5,27,-1,-2,48,13,6,-1
14474,15261,0,27,-1,6,26,26,0,6
14474,15261,2,26,4,13,35,19,5,6
14486,15274,-5,4,-1,-6,25,-7,-10,-11
14486,15274,0,26,-3,-3,54,13,4,-2
14488,15276,1,27,1,5,29,25,4,8
14488,15276,3,27,-2,8,32,20,4,6
14509,15297,-5,7,-1,-7,23,-4,-7,-13
14509,15297,-2,27,-1,-1,70,14,4,-2
14510,15299,1,26,2,3,29,23,5,6
14510,15299,1,29,-3,7,33,19,6,5
14522,15310,-4,6,-2,-11,25,-2,-6,-10
14523,15310,-2,25,-1,-2,62,17,5,-2
14539,15327,1,26,-1,5,30,24,0,11
14539,15327,4,29,0,9,32,19,2,7
14546,15334,-7,6,0,-13,28,-1,-7,-14
14546,15334,1,26,-1,-1,59,17,6,-2
14548,15336,2,25,2,5,27,24,4,6
14548,15336,2,29,-1,4,29,20,4,5
14569,15357,-4,8,-3,-9,25,0,-11,-13
14569,15357,2,27,3,1,62,18,9,-2
14570,15358,2,25,-3,2,32,24,0,7
14570,15358,3,29,-3,8,33,21,4,6
14583,15371,-6,9,-1,-8,27,1,-5,-15
14583,15371,2,24,-2,2,54,17,5,-3
14599,15387,4,24,-1,5,29,23,2,8
14599,15387,3,28,2,5,30,21,5,5
14606,15395,-5,11,0,-4,27,2,-10,-17
14606,15395,-2,25,0,9,46,19,6,-3
14608,15396,1,24,0,0,27,24,3,7
14608,15396,3,29,-4,7,30,22,3,6
14636,15424,-6,14,0,-15,29,2,-7,-15
14636,15424,-2,25,0,4,46,19,5,-3
14638,15426,3,24,2,9,28,22,3,7
14638,15426,1,28,0,2,29,23,4,5
14643,15431,-5,15,-2,-18,27,-1,-9,-17
14643,15431,0,23,0,4,52,17,7,-3
14659,15447,0,23,-1,22,29,23,1,4
14659,15447,3,28,2,11,28,24,4,5
14666,15454,-4,16,-4,-33,27,1,-8,-15
14666,15454,-1,32,2,2,44,17,5,-2
14668,15456,2,23,2,3,27,22,1,9
14668,15456,5,28,-1,18,29,22,3,5
14696,15485,-4,18,-2,-6,26,1,-9,-21
14696,15485,3,34,-1,1,46,17,6,-3
14698,15486,-1,23,1,5,29,23,4,10
14698,15486,5,28,1,7,26,23,4,4
14702,15490,-6,18,0,-9,28,1,-11,-19
14702,15490,1,37,-1,2,45,18,6,-3
14719,15507,2,23,-2,4,27,21,3,9
14719,15507,3,27,-1,1,27,22,3,6
14726,15514,-6,20,-1,-5,27,5,-10,-19
14726,15514,1,37,-1,4,52,14,7,-3
14728,15516,2,24,0,4,29,20,2,6
14728,15516,3,27,-1,10,25,22,3,5
14749,15537,-4,19,-3,-13,26,6,-10,-22
14749,15537,-1,39,-4,4,57,17,7,-3
14751,15539,2,24,-1,-1,31,19,2,8
14751,15539,3,27,1,10,18,21,4,3
14763,15550,-5,21,4,-6,24,9,-9,-19
14763,15550,3,41,1,3,47,18,7,-2
14771,15560,1,24,-4,3,31,18,2,10
14771,15560,2,26,-2,-5,22,21,-1,3
14786,15574,-8,22,1,-6,25,11,-7,-21
14786,15574,1,42,0,4,60,24,4,-3
14788,15576,1,23,0,4,31,18,0,7
14788,15576,5,28,1,9,23,21,3,3
14809,15598,-4,21,-2,-6,25,11,-8,-23
14809,15598,2,40,-1,-1,49,23,8,-3
14815,15603,2,24,-1,11,31,18,2,7
14815,15603,2,27,1,15,23,22,1,4
14822,15611,-8,21,-1,-15,24,13,-7,-22
14822,15611,2,39,0,5,59,22,6,0
14831,15620,3,23,0,-1,33,18,1,8
14831,15620,3,26,-1,7,22,20,1,3
14846,15634,-9,22,-3,-14,25,13,-4,-18
14846,15634,-1,38,-2,1,45,27,7,-1
14848,15636,3,23,-1,7,31,18,3,8
14848,15636,4,26,2,4,18,22,1,3
14876,15664,-7,22,-2,-14,23,15,-9,-23
14876,15664,2,40,2,5,55,29,5,-1
14878,15666,3,24,2,8,32,18,1,9
14878,15666,4,24,-2,8,16,22,0,2
14891,15680,-4,22,-4,-19,25,15,-6,-22
14891,15680,2,38,0,10,43,27,7,-2
14893,15681,3,22,0,6,32,18,3,10
14893,15681,4,25,-2,3,22,22,-3,3
14906,15695,-5,22,1,-11,23,15,-4,-21
14906,15695,3,38,0,5,50,29,6,-3
14908,15696,5,24,-1,5,32,19,3,9
14908,15696,3,23,2,7,17,21,-2,4
14936,15725,-6,22,-1,-3,24,15,-9,-21
14936,15725,0,38,-1,4,42,28,5,-2
14938,15726,-1,23,-1,9,31,18,4,8
14938,15726,2,23,-1,6,18,21,4,3
14951,15739,-7,21,-1,-15,23,14,-5,-20
14951,15739,2,42,-1,19,39,29,4,-1
14953,15741,1,24,-2,-11,31,18,0,8
14953,15741,1,23,-3,4,18,20,0,3
14965,15753,-5,21,5,-9,26,16,-9,-17
14965,15753,2,41,-1,0,37,27,4,-1
14974,15763,2,24,-1,6,30,18,-1,9
14974,15763,2,23,-3,5,22,20,-1,2
14989,15777,-4,21,-3,-13,23,15,-9,-19
14989,15777,1,45,-1,4,32,29,3,-1
14995,15783,4,25,0,7,31,17,1,7
14995,15783,0,23,2,6,20,19,1,3
15011,15799,-4,21,-2,-13,23,16,-10,-17
15011,15799,1,45,0,7,37,30,4,-1
15013,15802,3,25,-2,9,32,18,3,6
15013,15802,1,19,1,3,1,19,-4,3
15026,15814,-9,20,-3,-15,22,16,-5,-19
15026,15814,1,46,-1,3,35,28,2,-2
15028,15816,-1,25,-1,5,31,18,3,10
15028,15816,4,18,1,8,2,17,-2,3
15049,15837,-5,21,-1,-6,21,16,-6,-19
15049,15837,1,44,0,2,30,28,5,-1
15050,15839,1,26,-2,6,33,17,2,9
15050,15839,1,19,0,-2,5,17,-4,3
15071,15859,-5,20,-2,-10,21,16,-6,-20
15072,15859,1,48,-1,0,44,33,5,-1
15073,15860,1,26,3,8,33,18,-1,10
15073,15860,-1,17,-1,2,-1,18,-5,3
15086,15874,-3,20,-3,-17,21,16,-7,-19
15086,15874,2,47,2,9,35,32,5,0
15100,15888,2,27,-2,-2,30,18,3,8
15100,15888,1,17,1,0,-3,18,-1,3
15109,15897,-6,19,-1,-7,23,15,-9,-20
15109,15897,2,43,-3,3,40,37,5,0
15110,15898,1,26,0,5,32,19,3,11
15110,15898,1,16,1,9,11,17,-8,3
15139,15927,-8,20,-1,-19,24,15,-4,-18
15139,15927,2,37,-1,4,27,37,1,1
15140,15928,3,26,2,8,30,19,-3,8
15140,15928,0,12,0,0,7,13,-5,3
15146,15934,-8,20,0,-15,24,15,-5,-19
15146,15934,2,43,0,5,34,34,4,2
15154,15942,2,25,-2,8,29,19,1,10
15154,15942,3,11,1,-3,0,10,-6,3
15169,15957,-6,19,0,-16,27,14,-7,-16
15169,15957,2,39,0,4,31,39,6,1
15170,15958,2,25,-2,5,28,20,-1,8
15170,15958,-1,13,-1,3,-4,11,-6,3
15191,15979,-6,19,2,-8,25,15,-4,-14
15191,15979,2,41,-2,1,32,37,3,4
15193,15981,0,26,4,12,28,20,0,10
15193,15981,-3,10,-5,-6,9,11,-5,3
15214,16001,-7,18,-1,-11,24,14,-6,-12
15214,16001,4,37,2,5,28,33,4,3
15215,16004,3,25,0,3,29,20,2,8
15215,16004,1,12,-2,1,-4,8,-5,3
15229,16016,-6,18,2,-6,24,14,-5,-13
15229,16016,3,41,0,3,30,38,5,1
15230,16019,0,27,-4,0,27,21,1,9
15230,16019,-1,11,0,0,-1,8,-4,3
15251,16040,-5,18,-2,-13,25,13,-2,-11
15252,16040,1,38,0,7,27,36,3,3
15253,16041,2,26,-2,3,26,20,0,6
15253,16041,-2,8,-1,-5,6,8,-8,3
15266,16054,-5,19,-1,-8,24,14,-6,-10
15266,16054,3,37,-1,5,29,34,4,1
15280,16068,2,26,0,4,28,20,2,9
15280,16068,-3,11,1,2,0,5,-9,4
15289,16077,-6,19,-4,-11,23,13,-4,-9
15289,16077,2,33,0,4,26,32,3,1
15290,16078,4,26,2,0,28,19,3,9
15290,16078,1,0,1,-3,3,8,-7,3
15311,16100,-5,19,-4,-9,24,14,-4,-9
15311,16100,0,37,-2,9,32,33,1,2
15313,16101,1,26,2,0,29,20,0,8
15313,16101,-1,3,0,-9,4,8,-8,3
15326,16114,-4,19,-2,-13,25,14,-2,-10
15326,16114,2,35,3,10,32,34,1,3
15332,16121,1,26,2,8,29,20,1,8
15333,16121,-2,2,1,-2,-6,8,-8,3
15349,16137,-4,19,-3,-13,24,13,-3,-10
15349,16137,3,35,-1,8,30,33,2,5
15350,16138,2,25,-3,-3,32,20,-3,8
15350,16138,-2,-3,-1,-5,-10,5,-7,3
15371,16159,-7,19,1,-11,23,14,-4,-8
15371,16159,2,32,2,-3,30,34,2,6
15373,16161,2,25,-1,6,31,21,0,9
15373,16161,-2,1,0,1,-9,7,-7,2
15385,16173,-4,19,2,-16,26,14,-3,-8
15385,16173,2,30,-4,5,32,31,3,1
15394,16182,2,25,-1,1,30,20,3,7
15394,16182,-1,-5,0,-1,4,-2,-6,1
15409,16197,-4,19,0,-13,25,13,-4,-8
15409,16197,2,33,0,4,31,32,3,4
15410,16198,2,24,-2,3,27,20,3,7
15410,16198,-3,-2,0,-1,2,-8,-7,0
15431,16219,-4,20,-2,-3,25,14,-2,-8
15431,16219,1,32,-1,-8,32,32,3,7
15433,16222,1,23,1,6,30,20,1,10
15433,16222,-2,-9,-1,-8,5,-12,-9,1
15445,16234,-4,20,0,-9,25,13,-2,-5
15445,16234,2,34,-1,12,30,34,2,3
15461,16249,2,23,-1,3,29,20,4,9
15461,16249,-5,-2,-1,-10,8,-7,-11,1
15469,16257,-4,19,1,-5,29,13,-1,-5
15469,16257,1,31,-1,6,30,31,3,5
15470,16258,1,24,0,10,30,20,3,9
15470,16258,-2,-7,-2,-13,11,-14,-6,0
15490,16279,-3,19,-4,-8,24,12,-2,-4
15491,16279,1,37,2,2,29,36,4,6
15499,16288,4,24,1,12,30,19,1,9
15499,16288,-4,0,0,-6,3,-6,-11,0
15505,16294,-4,19,-1,-4,34,13,-1,-4
15505,16294,3,32,2,-4,30,30,3,6
15521,16310,3,24,-1,12,31,19,3,9
15521,16310,-3,-6,-1,-6,2,-5,-8,0
15529,16317,-3,20,3,-7,47,14,-3,-3
15529,16317,3,33,0,9,30,30,2,3
15530,16318,1,24,1,1,35,18,2,6
15530,16318,-3,-4,-2,-4,19,-7,-11,-1
15559,16347,-6,20,-1,-5,36,14,2,-2
15559,16347,1,31,-2,7,31,27,1,7
15566,16353,5,25,0,2,34,18,3,10
15566,16353,-1,-4,0,-4,6,-8,-7,-1
15566,16354,-3,20,-2,-5,36,15,2,-2
15566,16354,2,30,3,3,34,28,2,5
15581,16370,3,24,-4,1,32,18,3,6
15581,16370,-3,-9,0,-9,10,-3,-8,-1
15589,16377,-4,20,0,-5,44,14,2,-2
15589,16377,1,30,-2,1,30,28,1,7
15590,16378,3,26,0,13,33,18,1,9
15590,16378,-5,-8,-2,-14,13,-7,-7,-2
15611,16400,-2,19,-2,-10,35,14,4,-2
15611,16400,1,29,1,12,28,30,3,4
15613,16401,3,24,-1,5,35,19,3,8
15613,16401,-5,-9,-3,1,14,0,-9,-2
15625,16413,-4,20,2,0,32,15,4,-2
15625,16413,1,27,-3,-1,30,30,0,7
15634,16422,-1,25,0,-1,35,18,4,6
15634,16422,-2,-9,0,-9,17,-7,-7,-4
15649,16437,-2,20,-3,-5,39,15,4,-2
15649,16437,3,27,0,6,30,29,3,7
15650,16439,5,25,-1,4,33,20,3,10
15650,16439,-3,-1,-1,-9,21,-9,-9,-4
15679,16467,-4,19,-1,-3,33,14,3,-3
15679,16467,3,29,-3,3,30,32,0,6
15680,16468,0,24,-1,6,34,20,4,11
15680,16468,-3,-3,1,-9,20,-16,-9,-8
15694,16482,-1,19,-1,-4,34,14,3,-2
15694,16482,1,30,-1,6,29,26,4,6
15695,16483,-1,26,-2,8,32,20,4,8
15695,16483,-3,1,0,-18,23,-18,-10,-7
15709,16496,-2,19,-1,-6,31,15,3,-2
15709,16496,1,26,1,6,28,29,2,7
15710,16498,4,24,0,8,35,19,5,8
15710,16498,-6,-4,-1,-9,25,-22,-9,-9
15739,16527,-2,24,2,-2,29,13,3,-2
15739,16527,3,28,0,1,27,29,-2,8
15740,16528,3,26,-2,6,31,20,7,9
15740,16528,-5,4,-1,-7,25,-16,-10,-9
15745,16532,-3,23,0,-4,23,12,3,-2
15745,16532,3,25,0,7,27,30,0,8
15754,16542,4,25,-2,8,31,20,3,7
15754,16542,-6,-1,1,-7,23,-14,-7,-11
15769,16557,-4,28,-3,-2,35,12,4,-2
15769,16557,3,28,2,6,27,26,4,8
15770,16558,4,26,-2,-5,32,19,1,7
15770,16558,-4,4,0,-4,26,-8,-9,-11
15791,16579,0,26,1,0,41,14,4,-2
15791,16579,0,26,-1,5,26,24,1,7
15799,16588,5,27,-1,7,32,18,4,7
15799,16588,-7,3,-2,-17,23,-7,-9,-10
15814,16602,-3,26,-1,-1,47,14,4,-2
15814,16602,3,28,0,3,27,25,4,6
15815,16603,2,26,1,10,31,18,6,7
15815,16603,-2,6,-2,-4,25,-2,-7,-11
15829,16617,-1,24,-4,-2,52,14,4,-2
15829,16617,-2,26,-2,3,28,25,4,7
15830,16619,4,28,4,14,31,19,2,6
15830,16619,-6,7,1,-10,27,-2,-10,-13
15851,16639,0,27,-1,-1,59,15,4,-2
15851,16639,1,26,0,8,26,25,3,7
15853,16641,3,28,1,8,31,20,4,6
15853,16641,-3,10,-1,-11,26,0,-6,-14
15873,16662,1,25,-1,0,58,17,5,-2
15873,16662,3,25,0,2,29,23,3,6
15882,16670,1,28,0,13,33,20,1,5
15882,16670,-4,7,1,-10,25,-1,-6,-13
15889,16677,-2,26,0,0,62,18,7,-2
15889,16677,1,25,-2,1,29,23,4,7
15890,16678,6,28,-1,9,32,20,5,6
15891,16678,-4,10,-1,-11,24,0,-11,-15
15911,16699,-1,22,-2,0,48,18,6,-3
15911,16699,2,24,-1,7,28,25,1,8
15913,16701,4,27,-5,2,30,21,2,5
15913,16701,-5,11,0,-14,24,1,-8,-15
15934,16722,1,23,3,4,44,17,7,-2
15934,16722,1,24,2,5,29,23,0,8
15935,16723,3,28,1,6,25,22,5,6
15935,16723,-5,15,-3,-13,28,-1,-6,-15
15949,16737,2,23,1,3,58,16,8,-3
15949,16737,3,23,-2,-2,24,23,2,8
15950,16738,5,27,2,16,28,23,6,5
15950,16738,-8,15,1,-10,27,0,-9,-20
15971,16759,1,23,0,6,44,17,7,-3
15971,16759,2,23,1,2,27,24,4,7
15973,16761,2,27,0,-2,29,23,6,6
15973,16761,-4,17,-3,-8,27,1,-10,-17
15994,16782,0,24,-3,-2,35,17,6,-3
15994,16782,-1,23,1,11,28,22,3,10
15995,16783,1,26,0,9,25,22,5,6
15995,16783,-5,18,0,-11,25,1,-9,-19
16008,16796,3,36,1,3,55,18,7,-2
16008,16796,5,23,0,9,26,22,-1,6
16015,16803,4,28,-3,2,30,23,3,5
16015,16803,-7,18,-1,-14,26,4,-9,-19
16031,16819,0,36,0,4,42,17,8,-3
16031,16819,2,23,-1,0,31,20,2,8
16033,16822,3,28,-1,10,28,22,2,4
16033,16822,-3,19,0,-11,24,7,-6,-19
16054,16842,1,35,3,4,43,17,4,-2
16054,16842,1,24,1,6,28,21,3,6
16055,16844,2,27,-2,-1,17,22,0,4
16055,16844,-6,19,1,-12,25,9,-7,-20
16069,16856,1,39,1,5,66,17,6,-3
16069,16856,0,23,-3,2,29,19,4,6
16076,16864,2,27,0,12,24,22,2,3
16076,16864,-7,21,0,-9,26,11,-10,-20
16092,16880,3,39,-1,1,59,18,8,-3
16092,16880,2,23,1,6,31,19,1,9
16093,16881,4,27,1,14,26,21,3,3
16093,16881,-4,21,-3,-25,23,12,-10,-21
16113,16901,0,40,-4,2,49,28,8,-3
16113,16901,3,23,0,8,31,19,4,10
16121,16910,2,26,1,9,12,21,3,2
16121,16910,-6,21,-1,-18,23,13,-8,-20
16128,16916,2,39,-3,10,41,22,6,-3
16128,16916,2,24,-1,-5,30,19,4,8
16135,16924,4,27,3,13,19,22,-1,2
16135,16924,-5,21,1,-7,23,14,-5,-19
16151,16940,1,38,2,5,39,23,8,-2
16151,16940,2,23,-4,0,29,19,1,11
16153,16941,3,26,-3,6,22,21,0,3
16153,16941,-5,21,-4,-12,24,14,-6,-22
16173,16961,1,35,1,4,54,25,4,-1
16173,16961,3,22,3,5,30,18,4,9
16181,16969,3,25,-2,6,25,22,1,3
16181,16969,-6,22,-2,-14,21,15,-7,-22
16188,16976,0,37,-1,9,47,27,7,-2
16188,16976,1,23,0,2,30,18,3,10
16195,16983,1,24,-1,3,9,21,-2,3
16195,16983,-6,21,0,-4,23,15,-6,-22
16219,17007,3,38,-2,4,49,25,3,-1
16219,17007,2,23,-2,1,29,18,4,5
16220,17008,4,24,1,6,23,21,-1,3
16220,17008,-6,22,2,-8,20,15,-7,-18
16234,17022,2,36,2,-4,40,27,4,-1
16234,17022,0,23,0,14,33,18,0,7
16235,17024,2,23,0,3,14,21,0,2
16235,17024,-8,21,-3,-14,23,15,-11,-21
16248,17036,1,39,2,8,44,27,7,-1
16248,17036,1,23,-2,8,28,18,4,9
16255,17044,3,23,1,6,18,21,0,2
16255,17044,-6,21,-1,-9,21,15,-8,-20
16271,17059,4,43,-2,6,40,27,5,-1
16271,17059,2,24,-2,7,30,18,1,9
16273,17062,1,23,1,10,21,21,1,3
16273,17062,-4,21,-2,-11,24,15,-5,-21
16294,17082,3,46,-1,1,38,29,4,-2
16294,17082,4,24,-2,2,30,18,2,8
16295,17084,1,24,2,9,20,20,0,3
16295,17084,-5,20,1,-14,21,14,-7,-20
16308,17096,1,44,-4,-2,26,31,6,-2
16308,17096,-2,25,1,10,29,19,1,10
16316,17104,2,23,-2,0,0,18,-2,3
16316,17104,-7,20,0,-12,20,16,-4,-19
16331,17119,0,40,-1,4,28,30,5,-1
16331,17119,4,25,-1,4,30,17,-1,11
16333,17121,1,21,-1,0,12,18,-2,2
16333,17121,-7,20,-1,-11,21,16,-7,-21
16361,17149,0,49,3,5,41,28,2,-1
16361,17149,1,26,-3,6,31,17,1,7
16363,17151,0,19,-1,-1,1,17,-3,3
16363,17151,-4,21,-3,-15,19,16,-6,-18
16367,17155,1,41,0,12,44,33,5,-2
16367,17155,2,25,1,1,31,18,2,6
16384,17172,1,18,-4,-5,14,18,-5,3
16384,17172,-7,19,0,-12,20,15,-7,-20
16391,17180,3,41,1,6,33,32,1,-2
16391,17180,0,25,3,11,32,18,1,10
16393,17181,0,14,-3,2,11,18,-4,3
16393,17181,-7,20,2,-9,22,15,-6,-18
16414,17202,0,44,0,7,34,33,3,-2
16414,17202,2,26,1,4,31,19,3,10
16415,17203,2,16,1,7,5,17,-4,3
16415,17203,-6,18,-1,-14,22,16,-9,-18
16428,17216,3,43,-2,7,30,34,6,0
16428,17216,4,26,3,3,29,19,0,10
16436,17224,1,15,1,3,-4,16,-5,3
16436,17224,-6,18,-2,-13,24,15,-5,-17
16451,17239,2,44,1,3,33,38,3,2
16451,17239,1,26,-1,7,30,19,3,7
16453,17241,3,12,-2,1,2,13,-3,3
16453,17241,-5,19,1,-10,23,16,-7,-18
16481,17269,1,42,-1,4,26,33,1,1
16481,17269,3,25,-3,8,29,20,0,10
16483,17271,1,13,0,-10,7,13,-4,3
16483,17271,-7,18,-5,-8,23,14,-5,-16
16487,17276,3,41,0,3,29,34,6,1
16487,17276,3,25,1,5,29,20,1,9
