pc_t_ms,emg_t_ms,emg0,emg1,emg2,emg3,emg4,emg5,emg6,emg7,imu_match,imu_source_idx,imu_pc_t_ms,imu_dt_ms,imu_t_ms,imu_ax_raw,imu_ay_raw,imu_az_raw,imu_gx_raw,imu_gy_raw,imu_gz_raw,imu_mad_roll_mdeg,imu_mad_pitch_mdeg,imu_mad_yaw_mdeg,imu_mad_us,imu_ekf_roll_mdeg,imu_ekf_pitch_mdeg,imu_ekf_yaw_mdeg,imu_traceP_1e6,imu_ekf_us,imu_bx_uradps,imu_by_uradps,imu_bz_uradps,emg_dc0,emg_dc1,emg_dc2,emg_dc3,emg_dc4,emg_dc5,emg_dc6,emg_dc7,emg_hp0,emg_hp1,emg_hp2,emg_hp3,emg_hp4,emg_hp5,emg_hp6,emg_hp7,emg_rect0,emg_rect1,emg_rect2,emg_rect3,emg_rect4,emg_rect5,emg_rect6,emg_rect7,emg_env0,emg_env1,emg_env2,emg_env3,emg_env4,emg_env5,emg_env6,emg_env7
0,0,-3,-44,4,1,-111,-45,-8,4,1,0,197.000,-197.000,1125862,17304,-782,-3974,-534,-45,51,34987,-20895,5678,7,13298,1971,-44464,556601,165,-380,2331,9376,-2.637955,-43.606455,4.487264,1.433210,-112.528096,-44.630760,-7.620066,4.386156,-2.637955,-43.606455,4.487264,1.433210,-112.528096,-44.630760,-7.620066,4.386156,2.637955,43.606455,4.487264,1.433210,112.528096,44.630760,7.620066,4.386156,2.637955,43.606455,4.487264,1.433210,112.528096,44.630760,7.620066,4.386156
0,0,-2,-40,-1,-18,-8,-37,-8,-21,1,0,197.000,-197.000,1125862,17304,-782,-3974,-534,-45,51,34987,-20895,5678,7,13298,1971,-44464,556601,165,-380,2331,9376,-1.637955,-39.606455,-0.512736,-17.566790,-9.528096,-36.630760,-7.620066,-20.613844,-0.704544,-17.036178,-0.220546,-7.556116,-4.098381,-15.756223,-3.277668,-8.866765,0.704544,17.036178,0.220546,7.556116,4.098381,15.756223,3.277668,8.866765,1.930698,33.104035,3.176805,5.438243,79.622136,33.467621,5.865514,6.994922
0,1,1,15,-2,-1,55,14,2,-7,1,0,197.000,-197.000,1125862,17304,-782,-3974,-534,-45,51,34987,-20895,5678,7,13298,1971,-44464,556601,165,-380,2331,9376,1.362045,15.393545,-1.512736,-0.566790,53.471904,14.369240,2.379934,-6.613844,0.987359,16.329622,-0.525001,4.062158,25.335731,15.159631,2.891520,2.207991,0.987359,16.329622,0.525001,4.062158,25.335731,15.159631,2.891520,2.207991,1.676312,28.626391,2.611501,5.021624,66.636498,28.693656,5.071798,5.851869
0,1,6,54,-1,14,99,53,6,18,1,0,197.000,-197.000,1125862,17304,-782,-3974,-534,-45,51,34987,-20895,5678,7,13298,1971,-44464,556601,165,-380,2331,9376,6.362045,54.393545,-0.512736,14.433210,97.471904,53.369240,6.379934,18.386156,2.575381,23.799285,0.204314,8.199328,29.823822,23.296029,2.964294,11.703148,2.575381,23.799285,0.204314,8.199328,29.823822,23.296029,2.964294,11.703148,1.940532,27.499167,2.263932,5.976602,59.604381,27.443955,4.635635,7.741072
0,2,-7,-20,2,3,-63,-20,-4,2,1,0,197.000,-197.000,1125862,17304,-782,-3974,-534,-45,51,34987,-20895,5678,7,13298,1971,-44464,556601,165,-380,2331,9376,-6.637955,-19.606455,2.487264,3.433210,-64.528096,-19.630760,-3.620066,2.386156,-4.484008,-21.593155,1.378292,-1.204671,-56.853786,-21.379487,-3.026313,-1.848233,4.484008,21.593155,1.378292,1.204671,56.853786,21.379487,3.026313,1.848233,2.652130,26.423782,2.116660,5.372715,59.064510,26.342988,4.361537,6.972987
0,2,-3,-30,-2,-12,-7,-28,-6,-15,1,0,197.000,-197.000,1125862,17304,-782,-3974,-534,-45,51,34987,-20895,5678,7,13298,1971,-44464,556601,165,-380,2331,9376,-2.637955,-29.606455,-1.512736,-11.566790,-8.528096,-27.630760,-5.620066,-14.613844,-0.208189,-13.589366,-1.127692,-6.970219,-0.367244,-12.637187,-2.162000,-8.107311,0.208189,13.589366,1.127692,6.970219,0.367244,12.637187,2.162000,8.107311,2.422544,24.751269,1.986325,5.670307,53.918483,24.594931,4.078179,7.174506
0,5,-1,-6,-1,-5,27,-4,-1,-10,1,0,197.000,-197.000,1125862,17304,-782,-3974,-534,-45,51,34987,-20895,5678,7,13298,1971,-44464,556601,165,-380,2331,9376,-0.637955,-5.606455,-0.512736,-4.566790,25.471904,-3.630760,-0.620066,-9.613844,0.770723,4.477993,-0.054925,0.012810,14.466673,4.887560,1.220727,-1.336568,0.770723,4.477993,0.054925,0.012810,14.466673,4.887560,1.220727,1.336568,2.261679,22.977643,1.839097,5.249686,50.217386,22.845293,3.803747,6.661485
0,5,3,55,-2,14,97,52,8,17,1,0,197.000,-197.000,1125862,17304,-782,-3974,-534,-45,51,34987,-20895,5678,7,13298,1971,-44464,556601,165,-380,2331,9376,3.362045,55.393545,-1.512736,14.433210,95.471904,52.369240,8.379934,17.386156,2.052062,28.164468,-0.453762,8.178102,36.332191,26.189956,4.396307,11.038777,2.052062,28.164468,0.453762,8.178102,36.332191,26.189956,4.396307,11.038777,2.236551,23.688187,1.727782,5.698638,48.698729,23.289659,3.882765,7.352570
0,19,-2,-14,3,3,-51,-16,-3,7,1,0,197.000,-197.000,1125862,17304,-782,-3974,-534,-45,51,34987,-20895,5678,7,13298,1971,-44464,556601,165,-380,2331,9376,-1.637955,-13.606455,3.487264,3.433210,-52.528096,-15.630760,-2.620066,7.386156,-1.268016,-17.564849,1.955503,-1.213801,-48.032390,-17.984022,-2.840489,0.446816,1.268016,17.564849,1.955503,1.213801,48.032390,17.984022,2.840489,0.446816,2.150585,23.088154,1.754544,5.387940,48.625142,22.761299,3.781171,6.933669
0,19,-2,-26,1,-8,-18,-24,-6,-12,1,0,197.000,-197.000,1125862,17304,-782,-3974,-534,-45,51,34987,-20895,5678,7,13298,1971,-44464,556601,165,-380,2331,9376,-1.637955,-25.606455,1.487264,-7.566790,-19.528096,-23.630760,-5.620066,-11.613844,-0.545420,-12.716918,-0.019140,-5.253601,-6.465978,-11.176674,-2.512207,-7.980400,0.545420,12.716918,0.019140,5.253601,6.465978,11.176674,2.512207,7.980400,2.047502,22.269454,1.664518,5.374657,46.175154,21.880605,3.674051,7.045344
0,21,2,0,0,-9,46,0,-1,-11,1,0,197.000,-197.000,1125862,17304,-782,-3974,-534,-45,51,34987,-20895,5678,7,13298,1971,-44464,556601,165,-380,2331,9376,2.362045,0.393545,0.487264,-8.566790,44.471904,0.369240,-0.620066,-10.613844,1.485941,5.713537,-0.438369,-2.689901,24.747477,5.515779,1.070090,-3.002524,1.485941,5.713537,0.438369,2.689901,24.747477,5.515779,1.070090,3.002524,2.002967,21.302860,1.592550,5.188317,44.654111,20.928520,3.517897,6.778199
0,21,2,44,0,14,67,43,10,17,1,0,197.000,-197.000,1125862,17304,-782,-3974,-534,-45,51,34987,-20895,5678,7,13298,1971,-44464,556601,165,-380,2331,9376,2.362045,44.393545,0.487264,14.433210,65.471904,43.369240,10.379934,17.386156,0.639157,21.383602,-0.188559,8.736113,19.677655,20.868403,5.191785,10.752324,0.639157,21.383602,0.188559,8.736113,19.677655,20.868403,5.191785,10.752324,1.926551,21.309600,1.525722,5.570941,43.128777,20.923517,3.686532,7.193726
0,30,-1,-15,2,1,-44,-16,-2,4,1,0,197.000,-197.000,1125862,17304,-782,-3974,-534,-45,51,34987,-20895,5678,7,13298,1971,-44464,556601,165,-380,2331,9376,-0.637955,-14.606455,2.487264,1.433210,-45.528096,-15.630760,-1.620066,4.386156,-1.015484,-16.180182,0.779167,-1.834053,-39.281065,-16.401788,-2.928461,-0.966807,1.015484,16.180182,0.779167,1.834053,39.281065,16.401788,2.928461,0.966807,1.872275,20.959644,1.481710,5.376504,42.845068,20.610941,3.633838,6.916708
0,30,-3,-26,-2,-10,-1,-25,-4,-15,1,0,197.000,-197.000,1125862,17304,-782,-3974,-534,-45,51,34987,-20895,5678,7,13298,1971,-44464,556601,165,-380,2331,9376,-2.637955,-25.606455,-1.512736,-9.566790,-2.528096,-24.630760,-3.620066,-14.613844,-1.297070,-11.691186,-1.385398,-5.520393,1.599649,-10.926234,-2.119910,-8.588451,1.297070,11.691186,1.385398,5.520393,1.599649,10.926234,2.119910,8.588451,1.837171,20.437484,1.475039,5.386910,41.288754,20.074725,3.547193,7.049278
0,43,4,6,-3,-3,42,6,3,-6,1,0,197.000,-197.000,1125862,17304,-782,-3974,-534,-45,51,34987,-20895,5678,7,13298,1971,-44464,556601,165,-380,2331,9376,4.362045,6.393545,-2.512736,-2.566790,40.471904,6.369240,3.379934,-5.613844,2.453038,8.735560,-1.026046,0.636433,19.183933,8.634458,2.099104,0.177022,2.453038,8.735560,1.026046,0.636433,19.183933,8.634458,2.099104,0.177022,1.818778,16.950469,0.901490,5.375966,28.750290,16.310762,2.958003,6.951287
0,43,3,31,0,10,33,32,4,16,1,0,197.000,-197.000,1125862,17304,-782,-3974,-534,-45,51,34987,-20895,5678,7,13298,1971,-44464,556601,165,-380,2331,9376,3.362045,31.393545,0.487264,10.433210,31.471904,32.369240,4.379934,16.386156,0.625005,14.510893,0.849069,5.865526,4.380480,14.897541,1.333038,9.539145,0.625005,14.510893,0.849069,5.865526,4.380480,14.897541,1.333038,9.539145,1.816701,16.781777,0.927742,5.223051,28.753261,16.253025,2.847691,7.014583
0,51,0,-18,1,-2,-36,-18,-3,2,1,0,197.000,-197.000,1125862,17304,-782,-3974,-534,-45,51,34987,-20895,5678,7,13298,1971,-44464,556601,165,-380,2331,9376,0.362045,-17.606455,1.487264,-1.566790,-37.528096,-17.630760,-2.620066,2.386156,-1.021572,-14.835021,0.795352,-2.638661,-27.795208,-15.098845,-2.437567,-1.918776,1.021572,14.835021,0.795352,2.638661,27.795208,15.098845,2.437567,1.918776,1.818051,16.682355,0.941383,5.157415,28.915115,16.248983,2.817188,7.008504
0,51,0,-12,-1,-6,5,-12,-3,-8,1,0,197.000,-197.000,1125862,17304,-782,-3974,-534,-45,51,34987,-20895,5678,7,13298,1971,-44464,556601,165,-380,2331,9376,0.362045,-11.606455,-0.512736,-5.566790,3.471904,-11.630760,-2.620066,-7.613844,-0.439415,-3.800264,-0.518163,-2.855530,5.679862,-3.913745,-1.048486,-5.126700,0.439415,3.800264,0.518163,2.855530,5.679862,3.913745,1.048486,5.126700,1.686815,15.455581,0.949946,4.730676,27.836224,15.045228,2.717982,6.419763
0,74,-1,5,-1,1,26,5,1,0,1,0,197.000,-197.000,1125862,17304,-782,-3974,-534,-45,51,34987,-20895,5678,7,13298,1971,-44464,556601,165,-380,2331,9376,-0.637955,5.393545,-0.512736,1.433210,24.471904,5.369240,1.379934,0.386156,-0.619145,5.677687,-0.222881,1.782688,11.475980,5.628875,1.269554,1.235911,0.619145,5.677687,0.222881,1.782688,11.475980,5.628875,1.269554,1.235911,1.198566,14.417800,0.877641,4.743694,23.524030,13.999047,2.616939,6.409249
0,74,1,21,-1,6,28,20,3,9,1,0,197.000,-197.000,1125862,17304,-782,-3974,-534,-45,51,34987,-20895,5678,7,13298,1971,-44464,556601,165,-380,2331,9376,1.362045,21.393545,-0.512736,6.433210,26.471904,20.369240,3.379934,9.386156,0.593956,9.324362,-0.095869,2.917481,5.796510,8.873230,1.406354,4.402838,0.593956,9.324362,0.095869,2.917481,5.796510,8.873230,1.406354,4.402838,1.207752,14.173654,0.824667,4.431741,23.574782,13.790944,2.579878,6.145585
0,76,0,-15,0,-2,-18,-14,-4,-3,1,0,197.000,-197.000,1125862,17304,-782,-3974,-534,-45,51,34987,-20895,5678,7,13298,1971,-44464,556601,165,-380,2331,9376,0.362045,-14.606455,0.487264,-1.566790,-19.528096,-13.630760,-3.620066,-2.613844,-0.174654,-11.474163,0.388900,-2.186177,-17.292985,-10.807938,-2.406031,-3.267816,0.174654,11.474163,0.388900,2.186177,17.292985,10.807938,2.406031,3.267816,1.190972,14.452134,0.831061,4.470089,23.710377,14.029523,2.638717,6.197046
0,76,-1,-6,0,-4,13,-5,-1,-8,1,0,197.000,-197.000,1125862,17304,-782,-3974,-534,-45,51,34987,-20895,5678,7,13298,1971,-44464,556601,165,-380,2331,9376,-0.637955,-5.606455,0.487264,-3.566790,11.471904,-4.630760,-0.620066,-7.613844,-0.505262,-1.064228,0.167280,-1.800627,5.895886,-0.777660,0.255488,-3.556289,0.505262,1.064228,0.167280,1.800627,5.895886,0.777660,0.255488,3.556289,1.065770,12.340392,0.823380,3.928874,21.688181,12.160464,2.363673,5.531984
0,88,0,5,0,1,29,5,0,-1,1,0,197.000,-197.000,1125862,17304,-782,-3974,-534,-45,51,34987,-20895,5678,7,13298,1971,-44464,556601,165,-380,2331,9376,0.362045,5.393545,0.487264,1.433210,27.471904,5.369240,0.379934,-0.613844,0.212805,4.273737,0.071953,1.376167,9.418218,3.966864,0.540031,1.481266,0.212805,4.273737,0.071953,1.376167,9.418218,3.966864,0.540031,1.481266,1.012054,11.469633,0.636539,3.932694,17.661243,11.220476,2.243094,5.544846
0,88,0,13,-1,5,26,12,2,3,1,0,197.000,-197.000,1125862,17304,-782,-3974,-534,-45,51,34987,-20895,5678,7,13298,1971,-44464,556601,165,-380,2331,9376,0.362045,13.393545,-0.512736,5.433210,24.471904,12.369240,2.379934,3.386156,0.091535,5.279381,-0.399187,2.312485,2.760709,4.717247,1.092560,2.357692,0.091535,5.279381,0.399187,2.312485,2.760709,4.717247,1.092560,2.357692,1.001800,11.044994,0.645398,3.725132,17.591974,10.888794,2.160078,5.156870
0,128,1,14,-2,-8,78,13,3,-6,1,0,197.000,-197.000,1125862,17304,-782,-3974,-534,-45,51,34987,-20895,5678,7,13298,1971,-44464,556601,165,-380,2331,9376,1.362045,14.393545,-1.512736,-7.566790,76.471904,13.369240,3.379934,-5.613844,0.469509,2.700990,-0.601841,-4.597089,23.554575,2.459196,0.900086,-2.857099,0.469509,2.700990,0.601841,4.597089,23.554575,2.459196,0.900086,2.857099,0.928242,10.962720,0.654740,3.856072,17.474606,10.808546,2.154533,5.150965
0,128,4,61,-1,13,118,60,10,22,1,0,197.000,-197.000,1125862,17304,-782,-3974,-534,-45,51,34987,-20895,5678,7,13298,1971,-44464,556601,165,-380,2331,9376,4.362045,61.393545,-0.512736,13.433210,116.471904,60.369240,10.379934,22.386156,1.492362,21.378205,0.171263,7.055489,27.337136,21.274201,3.398115,10.814877,1.492362,21.378205,0.171263,7.055489,27.337136,21.274201,3.398115,10.814877,0.995758,10.961969,0.654400,3.601888,18.195712,10.864907,1.881882,5.160311
0,129,0,-7,3,8,-88,-9,-1,15,1,0,197.000,-197.000,1125862,17304,-782,-3974,-534,-45,51,34987,-20895,5678,7,13298,1971,-44464,556601,165,-380,2331,9376,0.362045,-6.606455,3.487264,8.433210,-89.528096,-8.630760,-0.620066,15.386156,-1.078626,-20.053731,1.794212,0.884141,-76.849402,-20.528604,-3.269848,1.640918,1.078626,20.053731,1.794212,0.884141,76.849402,20.528604,3.269848,1.640918,1.000490,11.410084,0.784103,3.576195,25.351815,11.354834,1.921620,5.172463
0,129,-6,-46,-1,-16,-35,-45,-10,-19,1,0,197.000,-197.000,1125862,17304,-782,-3974,-534,-45,51,34987,-20895,5678,7,13298,1971,-44464,556601,165,-380,2331,9376,-5.637955,-45.606455,-0.512736,-15.566790,-36.528096,-44.630760,-9.620066,-18.613844,-3.044775,-25.401160,-0.948790,-9.942973,-10.258496,-24.315010,-5.277708,-13.918819,3.044775,25.401160,0.948790,9.942973,10.258496,24.315010,5.277708,13.918819,1.242175,12.904029,0.736222,4.204048,25.496052,12.752840,2.315428,5.943383
0,133,-1,1,-3,-5,29,1,0,-8,1,0,197.000,-197.000,1125862,17304,-782,-3974,-534,-45,51,34987,-20895,5678,7,13298,1971,-44464,556601,165,-380,2331,9376,-0.637955,1.393545,-2.512736,-4.566790,27.471904,1.369240,0.379934,-7.613844,0.841014,9.290448,-1.268382,0.454666,23.116177,9.327503,2.031230,-1.255490,0.841014,9.290448,1.268382,0.454666,23.116177,9.327503,2.031230,1.255490,1.078752,12.931683,0.762718,4.202363,25.727994,12.787654,2.311100,5.952659
0,133,4,37,-3,8,96,38,5,7,1,0,197.000,-197.000,1125862,17304,-782,-3974,-534,-45,51,34987,-20895,5678,7,13298,1971,-44464,556601,165,-380,2331,9376,4.362045,37.393545,-2.512736,8.433210,94.471904,38.369240,5.379934,7.386156,2.512433,19.481070,-0.545577,5.787342,38.762248,19.927146,3.024388,5.912014,2.512433,19.481070,0.545577,5.787342,38.762248,19.927146,3.024388,5.912014,1.259636,13.390146,0.742635,4.194613,27.710672,13.267823,2.422314,5.606341
0,134,-1,7,2,10,-43,7,2,18,1,0,197.000,-197.000,1125862,17304,-782,-3974,-534,-45,51,34987,-20895,5678,7,13298,1971,-44464,556601,165,-380,2331,9376,-0.637955,7.393545,2.487264,10.433210,-44.528096,7.369240,2.379934,18.386156,-1.069993,-4.524575,1.916009,3.349619,-43.115906,-4.762838,0.010490,7.274473,1.069993,4.524575,1.916009,3.349619,43.115906,4.762838,0.010490,7.274473,1.262505,12.846728,0.876665,4.230707,29.077172,12.703209,2.333068,5.911677
0,134,-4,-39,0,-11,-38,-36,-6,-20,1,0,197.000,-197.000,1125862,17304,-782,-3974,-534,-45,51,34987,-20895,5678,7,13298,1971,-44464,556601,165,-380,2331,9376,-3.637955,-38.606455,0.487264,-10.566790,-39.528096,-35.630760,-5.620066,-19.613844,-1.750652,-21.732459,-0.036127,-7.592071,-16.395039,-20.544535,-3.436579,-13.216168,1.750652,21.732459,0.036127,7.592071,16.395039,20.544535,3.436579,13.216168,1.341283,14.062096,0.865712,4.629639,29.366263,13.799487,2.491638,6.748836
0,139,-2,-9,-2,-6,13,-9,-1,-14,1,0,197.000,-197.000,1125862,17304,-782,-3974,-534,-45,51,34987,-20895,5678,7,13298,1971,-44464,556601,165,-380,2331,9376,-1.637955,-8.606455,-1.512736,-5.566790,11.471904,-8.630760,-0.620066,-13.613844,0.107254,3.556170,-0.875813,-1.114944,14.884854,2.776730,0.672484,-3.103936,0.107254,3.556170,0.875813,1.114944,14.884854,2.776730,0.672484,3.103936,1.331345,14.012255,0.894818,4.614689,29.475346,13.737300,2.474962,6.791602
0,139,2,37,-2,7,93,37,3,2,1,0,197.000,-197.000,1125862,17304,-782,-3974,-534,-45,51,34987,-20895,5678,7,13298,1971,-44464,556601,165,-380,2331,9376,2.362045,37.393545,-1.512736,7.433210,91.471904,37.369240,3.379934,2.386156,1.766679,21.315913,-0.376719,5.112195,40.813430,20.980647,2.009806,5.547066,1.766679,21.315913,0.376719,5.112195,40.813430,20.980647,2.009806,5.547066,1.403645,14.919379,0.900099,4.749119,31.390718,14.646894,2.504533,6.851209
0,154,2,6,3,8,-42,4,0,13,1,0,197.000,-197.000,1125862,17304,-782,-3974,-534,-45,51,34987,-20895,5678,7,13298,1971,-44464,556601,165,-380,2331,9376,2.362045,6.393545,3.487264,8.433210,-43.528096,4.369240,0.379934,13.386156,0.759913,-4.165478,1.988642,2.629078,-40.513073,-5.169961,-0.425919,7.117496,0.759913,4.165478,1.988642,2.629078,40.513073,5.169961,0.425919,7.117496,1.417494,14.643197,1.040122,4.765130,32.882412,14.425568,2.423250,7.056543
0,154,-5,-34,-2,-11,-25,-32,-7,-15,1,0,197.000,-197.000,1125862,17304,-782,-3974,-534,-45,51,34987,-20895,5678,7,13298,1971,-44464,556601,165,-380,2331,9376,-4.637955,-33.606455,-1.512736,-10.566790,-26.528096,-31.630760,-6.620066,-14.613844,-2.684089,-18.997180,-1.295295,-7.041730,-10.113829,-17.708699,-3.194158,-8.982325,2.684089,18.997180,1.295295,7.041730,10.113829,17.708699,3.194158,8.982325,1.582924,15.495818,1.095307,5.100659,32.955674,15.180700,2.568315,7.392864
0,161,2,-4,-2,-5,33,-4,-2,-9,1,0,197.000,-197.000,1125862,17304,-782,-3974,-534,-45,51,34987,-20895,5678,7,13298,1971,-44464,556601,165,-380,2331,9376,2.362045,-3.606455,-1.512736,-4.566790,31.471904,-3.630760,-1.620066,-8.613844,1.856431,4.732713,-0.557153,-0.448086,20.597586,4.426663,0.776758,-1.282807,1.856431,4.732713,0.557153,0.448086,20.597586,4.426663,0.776758,1.282807,1.657884,15.505343,1.105215,5.088791,33.317336,15.189777,2.572646,7.390213
0,161,2,36,-3,8,69,37,5,12,1,0,197.000,-197.000,1125862,17304,-782,-3974,-534,-45,51,34987,-20895,5678,7,13298,1971,-44464,556601,165,-380,2331,9376,2.362045,36.393545,-2.512736,8.433210,67.471904,37.369240,5.379934,12.386156,0.798518,19.241168,-0.669788,5.399035,24.344682,19.539662,3.345067,8.481083,0.798518,19.241168,0.669788,5.399035,24.344682,19.539662,3.345067,8.481083,1.671385,16.274805,1.114523,5.253183,33.938674,16.012844,2.707857,7.704283
0,170,2,-3,3,5,-37,-4,0,8,1,0,197.000,-197.000,1125862,17304,-782,-3974,-534,-45,51,34987,-20895,5678,7,13298,1971,-44464,556601,165,-380,2331,9376,2.362045,-2.606455,3.487264,5.433210,-38.528096,-3.630760,0.379934,8.386156,0.343472,-8.498993,2.292718,1.031912,-35.122925,-9.230873,-0.711847,1.927477,0.343472,8.498993,2.292718,1.031912,35.122925,9.230873,0.711847,1.927477,1.669194,16.416689,1.261649,5.114927,34.645626,16.188439,2.703852,7.683636
0,170,0,-25,-1,-13,-18,-30,-7,-14,1,0,197.000,-197.000,1125862,17304,-782,-3974,-534,-45,51,34987,-20895,5678,7,13298,1971,-44464,556601,165,-380,2331,9376,0.362045,-24.606455,-0.512736,-12.566790,-19.528096,-29.630760,-6.620066,-13.613844,-0.712533,-13.118727,-0.734364,-7.298592,-6.935057,-15.154081,-3.317146,-8.633923,0.712533,13.118727,0.734364,7.298592,6.935057,15.154081,3.317146,8.633923,1.631990,15.784669,1.276003,5.139235,33.917176,15.688878,2.696661,7.483882
0,176,-12,7,-1,-1,28,5,0,-5,1,0,197.000,-197.000,1125862,17304,-782,-3974,-534,-45,51,34987,-20895,5678,7,13298,1971,-44464,556601,165,-380,2331,9376,-11.637955,7.393545,-0.512736,-0.566790,26.471904,5.369240,0.379934,-4.613844,-5.468123,8.121523,-0.315877,2.022247,16.803254,8.536452,1.584130,0.157463,5.468123,8.121523,0.315877,2.022247,16.803254,8.536452,1.584130,0.157463,2.171642,15.004732,1.185482,5.162170,27.362340,14.874283,2.586024,7.471140
0,176,5,22,-2,6,50,22,4,3,1,0,197.000,-197.000,1125862,17304,-782,-3974,-534,-45,51,34987,-20895,5678,7,13298,1971,-44464,556601,165,-380,2331,9376,5.362045,22.393545,-1.512736,6.433210,48.471904,22.369240,4.379934,3.386156,4.960280,9.945409,-0.566006,3.880797,16.690692,10.984158,2.401937,3.508822,4.960280,9.945409,0.566006,3.880797,16.690692,10.984158,2.401937,3.508822,2.410663,13.642580,1.167883,4.545562,27.587664,13.697893,2.260537,6.546696
0,200,7,-10,2,3,-32,-6,2,8,1,0,197.000,-197.000,1125862,17304,-782,-3974,-534,-45,51,34987,-20895,5678,7,13298,1971,-44464,556601,165,-380,2331,9376,7.362045,-9.606455,2.487264,3.433210,-33.528096,-5.630760,2.379934,8.386156,2.993870,-9.486483,1.477086,0.378863,-28.091911,-7.319133,0.172888,3.659954,2.993870,9.486483,1.477086,0.378863,28.091911,7.319133,0.172888,3.659954,2.530021,13.652213,1.185276,4.545066,27.915570,13.610446,2.194870,6.610858
0,200,-2,-15,0,-7,3,-16,-2,-10,1,0,197.000,-197.000,1125862,17304,-782,-3974,-534,-45,51,34987,-20895,5678,7,13298,1971,-44464,556601,165,-380,2331,9376,-1.637955,-14.606455,0.487264,-6.566790,1.471904,-15.630760,-1.620066,-9.613844,-2.583455,-6.231164,-0.224925,-4.138401,2.971421,-7.449590,-1.646180,-6.168176,2.583455,6.231164,0.224925,4.138401,2.971421,7.449590,1.646180,6.168176,2.535125,12.729819,1.177808,4.414584,25.934291,12.682453,2.087503,6.627555
0,200,-6,3,-2,-2,21,6,-1,-2,1,0,197.000,-197.000,1125862,17304,-782,-3974,-534,-45,51,34987,-20895,5678,7,13298,1971,-44464,556601,165,-380,2331,9376,-5.637955,3.393545,-1.512736,-1.566790,19.471904,6.369240,-0.620066,-1.613844,-2.831784,5.062205,-0.957021,0.370605,9.020571,6.258661,-0.277946,0.787934,2.831784,5.062205,0.957021,0.370605,9.020571,6.258661,0.277946,0.787934,2.630184,12.744271,1.091069,4.323996,23.358409,12.728794,2.088823,6.339477
0,200,-4,19,0,4,34,16,1,7,1,0,197.000,-197.000,1125862,17304,-782,-3974,-534,-45,51,34987,-20895,5678,7,13298,1971,-44464,556601,165,-380,2331,9376,-3.637955,19.393545,0.487264,4.433210,32.471904,16.369240,1.379934,7.386156,-0.357780,9.059621,0.448623,2.740229,9.471849,6.993442,0.740718,4.210147,0.357780,9.059621,0.448623,2.740229,9.471849,6.993442,0.740718,4.210147,2.589999,11.599283,1.097595,3.887953,23.082975,11.634742,1.886476,5.383201
0,214,-3,-7,1,0,-15,-11,-3,0,1,0,197.000,-197.000,1125862,17304,-782,-3974,-534,-45,51,34987,-20895,5678,7,13298,1971,-44464,556601,165,-380,2331,9376,-2.637955,-6.606455,1.487264,0.433210,-16.528096,-10.630760,-2.620066,0.386156,0.276242,-7.286674,0.623106,-0.541873,-17.002497,-8.605549,-1.401936,-1.200017,0.276242,7.286674,0.623106,0.541873,17.002497,8.605549,1.401936,1.200017,2.590893,11.723165,1.085200,3.879221,23.187217,11.836645,1.914909,5.328559
0,214,-1,-8,-2,-3,13,-5,-1,-4,1,0,197.000,-197.000,1125862,17304,-782,-3974,-534,-45,51,34987,-20895,5678,7,13298,1971,-44464,556601,165,-380,2331,9376,-0.637955,-7.606455,-1.512736,-2.566790,11.471904,-4.630760,-0.620066,-3.613844,0.979095,-3.564400,-1.022389,-1.523489,4.730427,-1.120741,0.257249,-2.236717,0.979095,3.564400,1.022389,1.523489,4.730427,1.120741,0.257249,2.236717,2.560910,10.290055,1.114533,3.653408,20.500347,10.428515,1.839316,5.152964
0,221,7,1,1,-2,18,0,0,3,1,0,197.000,-197.000,1125862,17304,-782,-3974,-534,-45,51,34987,-20895,5678,7,13298,1971,-44464,556601,165,-380,2331,9376,7.362045,1.393545,1.487264,-1.566790,16.471904,0.369240,0.379934,3.386156,3.862235,2.338049,0.850643,-0.225172,4.185411,1.668610,0.540789,2.048862,3.862235,2.338049,0.850643,0.225172,4.185411,1.668610,0.540789,2.048862,2.753634,10.248723,1.005679,3.585707,17.443599,10.346188,1.841471,4.820207
0,221,-4,10,-2,5,33,9,2,4,1,0,197.000,-197.000,1125862,17304,-782,-3974,-534,-45,51,34987,-20895,5678,7,13298,1971,-44464,556601,165,-380,2331,9376,-3.637955,10.393545,-1.512736,5.433210,31.471904,9.369240,2.379934,4.386156,-3.070212,4.876908,-0.924517,2.914100,8.252344,4.588958,1.092886,1.311426,3.070212,4.876908,0.924517,2.914100,8.252344,4.588958,1.092886,1.311426,2.782302,8.997619,0.976013,3.149922,17.373460,9.281591,1.657579,4.194548
0,236,-3,-5,1,0,-3,-5,2,-2,1,0,197.000,-197.000,1125862,17304,-782,-3974,-534,-45,51,34987,-20895,5678,7,13298,1971,-44464,556601,165,-380,2331,9376,-2.637955,-4.606455,1.487264,0.433210,-4.528096,-4.630760,2.379934,-1.613844,-0.890474,-4.354310,0.892741,-0.897221,-11.935277,-4.048032,0.470090,-2.016726,0.890474,4.354310,0.892741,0.897221,11.935277,4.048032,0.470090,2.016726,2.748032,8.983960,0.993658,3.156766,16.784155,9.269236,1.649320,4.215116
0,236,0,-6,0,-3,9,-4,0,-4,1,0,197.000,-197.000,1125862,17304,-782,-3974,-534,-45,51,34987,-20895,5678,7,13298,1971,-44464,556601,165,-380,2331,9376,0.362045,-5.606455,0.487264,-2.566790,7.471904,-3.630760,0.379934,-3.613844,0.907384,-2.303084,-0.046136,-1.676337,0.027840,-1.311069,-0.658070,-1.727740,0.907384,2.303084,0.046136,1.676337,0.027840,1.311069,0.658070,1.727740,2.750444,7.392289,0.977478,2.843199,15.471742,7.666173,1.397119,3.583665
0,237,5,0,-2,-2,12,1,-3,-1,1,0,197.000,-197.000,1125862,17304,-782,-3974,-534,-45,51,34987,-20895,5678,7,13298,1971,-44464,556601,165,-380,2331,9376,5.362045,0.393545,-1.512736,-1.566790,10.471904,1.369240,-2.620066,-0.613844,2.540981,1.590178,-0.880118,-0.290917,1.302384,1.586743,-1.573469,0.547245,2.540981,1.590178,0.880118,0.290917,1.302384,1.586743,1.573469,0.547245,2.831555,7.047486,0.797072,2.830859,12.303668,7.270742,1.446578,3.549461
0,237,2,10,0,1,32,11,4,8,1,0,197.000,-197.000,1125862,17304,-782,-3974,-534,-45,51,34987,-20895,5678,7,13298,1971,-44464,556601,165,-380,2331,9376,2.362045,10.393545,0.487264,1.433210,30.471904,11.369240,4.379934,8.386156,-0.197441,4.985358,0.481702,1.165275,9.162931,4.983880,2.334148,4.106618,0.197441,4.985358,0.481702,1.165275,9.162931,4.983880,2.334148,4.106618,2.825637,6.256948,0.783184,2.075041,12.407336,6.183414,1.302224,2.911813
0,259,-2,-3,-1,1,-1,-5,-3,2,1,0,197.000,-197.000,1125862,17304,-782,-3974,-534,-45,51,34987,-20895,5678,7,13298,1971,-44464,556601,165,-380,2331,9376,-1.637955,-2.606455,-0.512736,1.433210,-2.528096,-4.630760,-2.620066,2.386156,-1.805472,-3.447389,-0.222939,0.501227,-10.253191,-4.738434,-2.006953,-0.814413,1.805472,3.447389,0.222939,0.501227,10.253191,4.738434,2.006953,0.814413,2.466033,5.940280,0.780897,2.007893,11.886266,5.885007,1.343222,2.919633
0,259,-1,-4,1,-3,0,-7,-1,-7,1,0,197.000,-197.000,1125862,17304,-782,-3974,-534,-45,51,34987,-20895,5678,7,13298,1971,-44464,556601,165,-380,2331,9376,-0.637955,-3.606455,1.487264,-2.566790,-1.528096,-6.630760,-0.620066,-6.613844,-0.346463,-1.912984,0.764379,-1.504950,-3.980134,-2.898446,-0.002991,-4.221536,0.346463,1.912984,0.764379,1.504950,3.980134,2.898446,0.002991,4.221536,2.081451,5.336969,0.792876,1.765688,11.068709,5.159011,1.179895,2.986268
0,259,2,1,0,-1,25,0,1,-5,1,0,197.000,-197.000,1125862,17304,-782,-3974,-534,-45,51,34987,-20895,5678,7,13298,1971,-44464,556601,165,-380,2331,9376,2.362045,1.393545,0.487264,-0.566790,23.471904,0.369240,1.379934,-4.613844,1.141383,1.327838,-0.101349,0.212939,9.041409,1.764228,0.858986,-0.955564,1.141383,1.327838,0.101349,0.212939,9.041409,1.764228,0.858986,0.955564,1.945574,4.709680,0.688145,1.763700,8.484525,4.797010,1.201133,2.833057
0,259,0,10,0,3,26,13,1,6,1,0,197.000,-197.000,1125862,17304,-782,-3974,-534,-45,51,34987,-20895,5678,7,13298,1971,-44464,556601,165,-380,2331,9376,0.362045,10.393545,0.487264,3.433210,24.471904,13.369240,1.379934,6.386156,-0.369322,4.442379,-0.043594,1.812139,4.319176,6.350632,0.369481,4.320478,0.369322,4.442379,0.043594,1.812139,4.319176,6.350632,0.369481,4.320478,1.821612,4.562600,0.685614,1.456670,8.525785,4.682738,1.122011,2.577196
0,282,-4,-4,-2,-1,-2,-7,-3,-1,1,0,197.000,-197.000,1125862,17304,-782,-3974,-534,-45,51,34987,-20895,5678,7,13298,1971,-44464,556601,165,-380,2331,9376,-3.637955,-3.606455,-1.512736,-0.566790,-3.528096,-6.630760,-2.620066,-0.613844,-1.879405,-4.111081,-0.879024,-0.941079,-10.185985,-5.871090,-1.561618,-1.152560,1.879405,4.111081,0.879024,0.941079,10.185985,5.871090,1.561618,1.152560,1.731410,4.493786,0.678113,1.474902,8.619039,4.646745,1.194813,2.586982
0,282,1,-6,-1,-3,11,-3,0,0,1,0,197.000,-197.000,1125862,17304,-782,-3974,-534,-45,51,34987,-20895,5678,7,13298,1971,-44464,556601,165,-380,2331,9376,1.362045,-5.606455,-0.512736,-2.566790,9.471904,-2.630760,0.379934,0.386156,1.342282,-2.628598,0.052036,-1.265065,1.210410,-0.804824,0.618700,-0.065622,1.342282,2.628598,0.052036,1.265065,1.210410,0.804824,0.618700,0.065622,1.765597,3.850328,0.667574,1.324124,8.245254,4.259702,1.189845,2.329525
0,282,1,2,1,0,29,3,0,-1,1,0,197.000,-197.000,1125862,17304,-782,-3974,-534,-45,51,34987,-20895,5678,7,13298,1971,-44464,556601,165,-380,2331,9376,1.362045,2.393545,1.487264,0.433210,27.471904,3.369240,0.379934,-0.613844,0.577364,2.310435,0.882655,0.746259,8.263097,2.234634,0.266126,-0.458363,0.577364,2.310435,0.882655,0.746259,8.263097,2.234634,0.266126,0.458363,1.770789,3.378428,0.688164,1.331206,7.225811,3.634841,1.131549,2.310592
0,282,4,7,0,1,20,5,0,2,1,0,197.000,-197.000,1125862,17304,-782,-3974,-534,-45,51,34987,-20895,5678,7,13298,1971,-44464,556601,165,-380,2331,9376,4.362045,7.393545,0.487264,1.433210,18.471904,5.369240,0.379934,2.386156,1.538755,3.144484,-0.050474,0.751129,-0.316969,1.821470,0.114470,1.093251,1.538755,3.144484,0.050474,0.751129,0.316969,1.821470,0.114470,1.093251,1.798985,3.348514,0.631735,1.283208,7.114855,3.655042,1.129872,2.250968
0,298,-12,-10,1,0,2,-8,-4,-7,1,0,197.000,-197.000,1125862,17304,-782,-3974,-534,-45,51,34987,-20895,5678,7,13298,1971,-44464,556601,165,-380,2331,9376,-11.637955,-9.606455,1.487264,0.433210,0.471904,-7.630760,-3.620066,-6.613844,-6.220308,-5.959762,0.408426,-0.107048,-7.878795,-4.808293,-1.671308,-3.400981,6.220308,5.959762,0.408426,0.107048,7.878795,4.808293,1.671308,3.400981,2.221393,3.655016,0.599432,1.282115,7.335112,3.848618,1.206334,2.364995
0,298,10,-1,-1,-3,18,-1,-1,-3,1,0,197.000,-197.000,1125862,17304,-782,-3974,-534,-45,51,34987,-20895,5678,7,13298,1971,-44464,556601,165,-380,2331,9376,10.362045,-0.606455,-0.512736,-2.566790,16.471904,-0.630760,-0.620066,-2.613844,6.787420,1.307717,-0.684594,-1.336455,3.493226,0.942733,0.571519,0.257660,6.787420,1.307717,0.684594,1.336455,3.493226,0.942733,0.571519,0.257660,2.748078,3.432553,0.575972,1.079272,7.057699,3.656660,1.180363,2.339893
0,299,0,4,0,2,20,2,0,-1,1,0,197.000,-197.000,1125862,17304,-782,-3974,-534,-45,51,34987,-20895,5678,7,13298,1971,-44464,556601,165,-380,2331,9376,0.362045,4.393545,0.487264,2.433210,18.471904,2.369240,0.379934,-0.613844,-1.381848,2.713179,0.135668,1.575824,2.362836,1.695913,0.675967,0.971102,1.381848,2.713179,0.135668,1.575824,2.362836,1.695913,0.675967,0.971102,2.762551,3.309674,0.525481,1.133446,6.327309,3.522234,1.187481,2.291712
0,299,-1,7,-1,2,19,3,-1,5,1,0,197.000,-197.000,1125862,17304,-782,-3974,-534,-45,51,34987,-20895,5678,7,13298,1971,-44464,556601,165,-380,2331,9376,-0.637955,7.393545,-0.512736,2.433210,17.471904,3.369240,-0.620066,5.386156,-1.024519,2.457446,-0.371781,0.677819,0.586206,1.159610,-0.139378,2.998525,1.024519,2.457446,0.371781,0.677819,0.586206,1.159610,0.139378,2.998525,2.765475,3.317594,0.534651,1.056785,6.329244,3.518437,1.174975,2.383474
0,319,-2,-9,0,-3,2,-7,-1,0,1,0,197.000,-197.000,1125862,17304,-782,-3974,-534,-45,51,34987,-20895,5678,7,13298,1971,-44464,556601,165,-380,2331,9376,-1.637955,-8.606455,0.487264,-2.566790,0.471904,-6.630760,-0.620066,0.386156,-0.870819,-5.825145,0.270220,-1.859127,-7.060171,-3.802573,-0.059952,-0.860907,0.870819,5.825145,0.270220,1.859127,7.060171,3.802573,0.059952,0.860907,2.690880,3.639993,0.485529,1.165175,6.595347,3.637635,1.097260,2.390083
0,319,-3,1,-1,-1,29,2,1,-1,1,0,197.000,-197.000,1125862,17304,-782,-3974,-534,-45,51,34987,-20895,5678,7,13298,1971,-44464,556601,165,-380,2331,9376,-2.637955,1.393545,-0.512736,-0.566790,27.471904,2.369240,1.379934,-0.613844,-0.804708,1.795757,-0.313905,0.060595,8.576847,2.235602,0.834485,-0.800444,0.804708,1.795757,0.313905,0.060595,8.576847,2.235602,0.834485,0.800444,2.698945,3.421201,0.475607,1.122900,6.538804,3.437319,0.929817,2.133933
0,328,0,3,-2,-1,16,5,1,1,1,0,197.000,-197.000,1125862,17304,-782,-3974,-534,-45,51,34987,-20895,5678,7,13298,1971,-44464,556601,165,-380,2331,9376,0.362045,3.393545,-1.512736,-0.566790,14.471904,5.369240,1.379934,1.386156,0.944275,1.632693,-0.565158,0.026064,-1.902559,2.252023,0.358943,0.515973,0.944275,1.632693,0.565158,0.026064,1.902559,2.252023,0.358943,0.515973,2.667425,3.323572,0.495446,1.114903,5.958638,3.251715,0.765544,2.127278
0,328,2,6,1,4,14,5,0,3,1,0,197.000,-197.000,1125862,17304,-782,-3974,-534,-45,51,34987,-20895,5678,7,13298,1971,-44464,556601,165,-380,2331,9376,2.362045,6.393545,1.487264,4.433210,12.471904,5.369240,0.379934,3.386156,1.266440,1.992690,1.047314,2.161893,-1.678633,0.968677,-0.275742,1.082211,1.266440,1.992690,1.047314,2.161893,1.678633,0.968677,0.275742,1.082211,2.687218,3.326915,0.531112,1.189568,5.880060,3.168691,0.769083,1.826475
0,341,2,-7,-1,-3,4,-9,-2,0,1,0,197.000,-197.000,1125862,17304,-782,-3974,-534,-45,51,34987,-20895,5678,7,13298,1971,-44464,556601,165,-380,2331,9376,2.362045,-6.606455,-0.512736,-2.566790,2.471904,-8.630760,-1.620066,0.386156,0.544742,-4.734645,-0.409785,-2.081046,-5.023405,-5.605246,-0.978880,-0.824911,0.544742,4.734645,0.409785,2.081046,5.023405,5.605246,0.978880,0.824911,2.673815,3.541699,0.541610,1.311935,5.526165,3.473109,0.779248,1.821921
0,341,-2,1,0,1,29,1,-1,-1,1,0,197.000,-197.000,1125862,17304,-782,-3974,-534,-45,51,34987,-20895,5678,7,13298,1971,-44464,556601,165,-380,2331,9376,-1.637955,1.393545,0.487264,1.433210,27.471904,1.369240,-0.620066,-0.613844,-1.486232,1.404548,0.253873,0.825412,8.592661,1.890344,0.009085,-0.784961,1.486232,1.404548,0.253873,0.825412,8.592661,1.890344,0.009085,0.784961,2.701355,3.357814,0.545719,1.239063,5.871952,3.071966,0.772970,1.424810
0,343,2,2,1,1,14,0,-1,0,1,0,197.000,-197.000,1125862,17304,-782,-3974,-534,-45,51,34987,-20895,5678,7,13298,1971,-44464,556601,165,-380,2331,9376,2.362045,2.393545,1.487264,1.433210,12.471904,0.369240,-0.620066,0.386156,1.081263,1.034284,0.539336,0.355040,-2.756030,0.382969,0.003908,0.092496,1.081263,1.034284,0.539336,0.355040,2.756030,0.382969,0.003908,0.092496,2.669931,3.184983,0.513220,1.216973,5.254651,2.642977,0.650610,1.391333
0,343,-3,3,-1,1,14,5,1,-2,1,0,197.000,-197.000,1125862,17304,-782,-3974,-534,-45,51,34987,-20895,5678,7,13298,1971,-44464,556601,165,-380,2331,9376,-2.637955,3.393545,-0.512736,1.433210,12.471904,5.369240,1.379934,-1.613844,-1.685591,0.875019,-0.628285,0.152716,-1.185469,2.315411,0.861954,-0.820487,1.685591,0.875019,0.628285,0.152716,1.185469,2.315411,0.861954,0.820487,2.683800,3.115328,0.539812,1.169776,5.254245,2.705919,0.670090,1.408399
0,365,-1,-6,-2,-4,6,-7,-1,-2,1,0,197.000,-197.000,1125862,17304,-782,-3974,-534,-45,51,34987,-20895,5678,7,13298,1971,-44464,556601,165,-380,2331,9376,-0.637955,-5.606455,-1.512736,-3.566790,4.471904,-6.630760,-0.620066,-1.613844,0.135239,-3.494850,-0.700384,-2.084994,-3.951005,-4.165694,-0.489515,-0.352921,0.135239,3.494850,0.700384,2.084994,3.951005,4.165694,0.489515,0.352921,2.679604,3.193180,0.520372,1.280277,4.883141,2.864405,0.679027,1.406228
0,365,-1,1,-1,-1,31,4,1,0,1,0,197.000,-197.000,1125862,17304,-782,-3974,-534,-45,51,34987,-20895,5678,7,13298,1971,-44464,556601,165,-380,2331,9376,-0.637955,1.393545,-0.512736,-0.566790,29.471904,4.369240,1.379934,0.386156,0.058171,1.507693,0.128876,0.393578,9.053939,2.939684,0.649715,0.708469,0.058171,1.507693,0.128876,0.393578,9.053939,2.939684,0.649715,0.708469,2.647904,3.106847,0.521336,1.268809,5.449143,2.930034,0.700210,1.388509
0,366,1,1,-2,-1,16,2,0,1,1,0,197.000,-197.000,1125862,17304,-782,-3974,-534,-45,51,34987,-20895,5678,7,13298,1971,-44464,556601,165,-380,2331,9376,1.362045,1.393545,-1.512736,-0.566790,14.471904,2.369240,0.379934,1.386156,0.885294,0.648513,-0.374702,0.169292,-2.557617,0.404192,-0.150671,0.734875,0.885294,0.648513,0.374702,0.169292,2.557617,0.404192,0.150671,0.734875,2.074523,2.673104,0.519524,1.269293,5.072124,2.635406,0.540737,1.067868
0,366,-3,4,0,2,16,4,2,1,1,0,197.000,-197.000,1125862,17304,-782,-3974,-534,-45,51,34987,-20895,5678,7,13298,1971,-44464,556601,165,-380,2331,9376,-2.637955,4.393545,0.487264,2.433210,14.471904,4.369240,2.379934,1.386156,-1.339748,1.569358,0.699100,1.363228,-1.100124,1.034131,0.795464,0.316096,1.339748,1.569358,0.699100,1.363228,1.100124,1.034131,0.795464,0.316096,1.068272,2.683142,0.520902,1.271325,4.994124,2.637853,0.560591,1.068988
0,387,-1,-6,1,-1,6,-8,-4,-5,1,0,197.000,-197.000,1125862,17304,-782,-3974,-534,-45,51,34987,-20895,5678,7,13298,1971,-44464,556601,165,-380,2331,9376,-0.637955,-5.606455,1.487264,-0.566790,4.471904,-7.630760,-3.620066,-4.613844,0.283998,-3.626326,0.730845,-0.704035,-4.774568,-4.716820,-2.238660,-2.444854,0.283998,3.626326,0.730845,0.704035,4.774568,4.716820,2.238660,2.444854,1.005273,2.759120,0.555136,1.214207,5.115742,2.888253,0.799748,1.225694
0,387,0,4,-1,0,26,1,-1,-2,1,0,197.000,-197.000,1125862,17304,-782,-3974,-534,-45,51,34987,-20895,5678,7,13298,1971,-44464,556601,165,-380,2331,9376,0.362045,4.393545,-0.512736,0.433210,24.471904,1.369240,-0.620066,-1.613844,0.552294,2.741549,-0.545910,0.127305,6.549013,1.842352,0.327480,0.238789,0.552294,2.741549,0.545910,0.127305,6.549013,1.842352,0.327480,0.238789,0.978461,2.778174,0.565323,1.201099,5.404610,2.913486,0.803660,0.929610
0,388,-2,1,-1,0,21,3,1,-1,1,0,197.000,-197.000,1125862,17304,-782,-3974,-534,-45,51,34987,-20895,5678,7,13298,1971,-44464,556601,165,-380,2331,9376,-1.637955,1.393545,-0.512736,0.433210,19.471904,3.369240,1.379934,-0.613844,-0.622711,-0.111169,-0.234816,0.054759,0.666287,1.652735,1.001134,0.532848,0.622711,0.111169,0.234816,0.054759,0.666287,1.652735,1.001134,0.532848,0.964841,2.301172,0.564193,1.093604,5.067651,2.765987,0.846878,0.911874
0,388,4,3,-2,1,15,2,-1,4,1,0,197.000,-197.000,1125862,17304,-782,-3974,-534,-45,51,34987,-20895,5678,7,13298,1971,-44464,556601,165,-380,2331,9376,4.362045,3.393545,-1.512736,1.433210,13.471904,2.369240,-0.620066,4.386156,2.312968,0.812455,-0.531139,0.453690,-2.294224,0.280765,-0.429649,2.379879,2.312968,0.812455,0.531139,0.453690,2.294224,0.280765,0.429649,2.379879,1.125520,2.261018,0.575696,1.100187,4.560987,2.701725,0.825014,1.091013
0,402,6,-7,0,-2,10,-9,-3,1,1,0,197.000,-197.000,1125862,17304,-782,-3974,-534,-45,51,34987,-20895,5678,7,13298,1971,-44464,556601,165,-380,2331,9376,6.362045,-6.606455,0.487264,-1.566790,8.471904,-8.630760,-2.620066,1.386156,1.855164,-3.951898,0.631811,-1.095261,-3.137511,-4.610733,-1.045080,-0.266736,1.855164,3.951898,0.631811,1.095261,3.137511,4.610733,1.045080,0.266736,1.203718,2.457099,0.580624,1.138441,4.609467,2.907843,0.865713,1.084608
0,402,-5,3,0,0,29,3,-1,-2,1,0,197.000,-197.000,1125862,17304,-782,-3974,-534,-45,51,34987,-20895,5678,7,13298,1971,-44464,556601,165,-380,2331,9376,-4.637955,3.393545,0.487264,0.433210,27.471904,3.369240,-0.620066,-1.613844,-3.933527,2.601509,0.271765,0.389161,6.823034,3.178393,0.410746,-1.405142,3.933527,2.601509,0.271765,0.389161,6.823034,3.178393,0.410746,1.405142,1.561910,2.497423,0.513860,0.986420,4.936718,3.018296,0.869528,1.110743
0,403,-1,3,1,1,23,2,0,0,1,0,197.000,-197.000,1125862,17304,-782,-3974,-534,-45,51,34987,-20895,5678,7,13298,1971,-44464,556601,165,-380,2331,9376,-0.637955,3.393545,1.487264,1.433210,21.471904,2.369240,0.379934,0.386156,0.028593,1.119004,0.547032,0.597529,0.354017,0.937006,0.606813,0.255870,0.028593,1.119004,0.547032,0.597529,0.354017,0.937006,0.606813,0.255870,1.555128,2.173789,0.522907,0.830173,4.751596,2.632228,0.844948,1.090789
0,403,1,3,1,0,17,2,1,3,1,0,197.000,-197.000,1125862,17304,-782,-3974,-534,-45,51,34987,-20895,5678,7,13298,1971,-44464,556601,165,-380,2331,9376,1.362045,3.393545,1.487264,0.433210,15.471904,2.369240,1.379934,3.386156,0.872572,0.481324,0.235299,-0.173117,-2.428543,0.403040,0.691149,1.400468,0.872572,0.481324,0.235299,0.173117,2.428543,0.403040,0.691149,1.400468,1.521523,2.144993,0.522286,0.801663,4.210118,2.585534,0.864900,1.133976
0,417,-2,-8,-2,-1,11,-6,-2,-2,1,0,197.000,-197.000,1125862,17304,-782,-3974,-534,-45,51,34987,-20895,5678,7,13298,1971,-44464,556601,165,-380,2331,9376,-1.637955,-7.606455,-1.512736,-0.566790,9.471904,-5.630760,-1.620066,-1.613844,-0.915084,-4.524465,-1.189199,-0.504601,-3.625423,-3.267729,-0.993121,-1.548290,0.915084,4.524465,1.189199,0.504601,3.625423,3.267729,0.993121,1.548290,1.513715,2.446791,0.594154,0.807370,4.256922,2.727128,0.904710,1.206864
0,417,-1,1,0,-1,15,4,0,1,1,0,197.000,-197.000,1125862,17304,-782,-3974,-534,-45,51,34987,-20895,5678,7,13298,1971,-44464,556601,165,-380,2331,9376,-0.637955,1.393545,0.487264,-0.566790,13.471904,4.369240,0.379934,1.386156,0.036525,1.925090,0.348755,-0.217047,0.161119,2.895795,0.433095,0.624433,0.036525,1.925090,0.348755,0.217047,0.161119,2.895795,0.433095,0.624433,1.445159,2.489339,0.577505,0.808422,4.245333,2.766453,0.882513,1.198451
0,418,-1,0,0,0,17,3,2,3,1,0,197.000,-197.000,1125862,17304,-782,-3974,-534,-45,51,34987,-20895,5678,7,13298,1971,-44464,556601,165,-380,2331,9376,-0.637955,0.393545,0.487264,0.433210,15.471904,3.369240,2.379934,3.386156,0.015711,0.397915,0.150012,0.336777,0.929576,0.815450,1.046563,1.128864,0.015711,0.397915,0.150012,0.336777,0.929576,0.815450,1.046563,1.128864,1.444713,2.309911,0.547796,0.592565,4.119411,2.541901,0.916487,1.232239
0,418,-1,1,0,-1,5,0,-1,1,1,0,197.000,-197.000,1125862,17304,-782,-3974,-534,-45,51,34987,-20895,5678,7,13298,1971,-44464,556601,165,-380,2331,9376,-0.637955,1.393545,0.487264,-0.566790,3.471904,0.369240,-0.620066,1.386156,0.006758,0.601294,0.064526,-0.285277,-4.761792,-0.939654,-0.840244,-0.374707,0.006758,0.601294,0.064526,0.285277,4.761792,0.939654,0.840244,0.374707,1.444631,2.280164,0.546984,0.588117,3.568458,2.430445,0.927483,1.221716
0,439,2,-7,0,-2,11,-5,-1,0,1,0,197.000,-197.000,1125862,17304,-782,-3974,-534,-45,51,34987,-20895,5678,7,13298,1971,-44464,556601,165,-380,2331,9376,2.362045,-6.606455,0.487264,-1.566790,9.471904,-4.630760,-0.620066,0.386156,1.293316,-3.182453,0.027755,-0.552844,0.532598,-2.554862,-0.361420,-0.591312,1.293316,3.182453,0.027755,0.552844,0.532598,2.554862,0.361420,0.591312,1.466442,2.427455,0.537790,0.604703,3.505269,2.522227,0.931630,1.216137
0,439,0,5,0,-1,22,3,3,-2,1,0,197.000,-197.000,1125862,17304,-782,-3974,-534,-45,51,34987,-20895,5678,7,13298,1971,-44464,556601,165,-380,2331,9376,0.362045,5.393545,0.487264,-0.566790,20.471904,3.369240,3.379934,-1.613844,-0.303971,3.792748,0.011938,0.192338,4.960590,2.342152,1.565086,-1.114617,0.303971,3.792748,0.011938,0.192338,4.960590,2.342152,1.565086,1.114617,1.424375,2.596943,0.504300,0.485351,3.736059,2.584004,0.998850,1.249237
0,440,1,3,-1,0,17,1,2,0,1,0,197.000,-197.000,1125862,17304,-782,-3974,-534,-45,51,34987,-20895,5678,7,13298,1971,-44464,556601,165,-380,2331,9376,1.362045,3.393545,-0.512736,0.433210,15.471904,1.369240,2.379934,0.386156,0.299388,0.771126,-0.425001,0.512868,-0.016952,0.147172,0.243064,0.380835,0.299388,0.771126,0.425001,0.512868,0.016952,0.147172,0.243064,0.380835,1.424600,2.418115,0.478610,0.467920,3.511387,2.255981,0.802464,1.069581
0,440,-1,-1,-1,1,9,4,0,3,1,0,197.000,-197.000,1125862,17304,-782,-3974,-534,-45,51,34987,-20895,5678,7,13298,1971,-44464,556601,165,-380,2331,9376,-0.637955,-0.606455,-0.512736,1.433210,7.471904,4.369240,0.379934,3.386156,-0.731495,-1.388856,-0.182809,0.650740,-3.448383,1.353713,-0.755722,1.454220,0.731495,1.388856,0.182809,0.650740,3.448383,1.353713,0.755722,1.454220,1.430356,2.334138,0.458440,0.498035,3.180515,2.231121,0.822850,1.136215
0,461,0,-9,0,-3,11,-7,0,-6,1,0,197.000,-197.000,1125862,17304,-782,-3974,-534,-45,51,34987,-20895,5678,7,13298,1971,-44464,556601,165,-380,2331,9376,0.362045,-8.606455,0.487264,-2.566790,9.471904,-6.630760,0.379934,-5.613844,0.115494,-4.038489,0.351504,-1.440639,-0.623002,-4.149219,-0.325064,-3.245715,0.115494,4.038489,0.351504,1.440639,0.623002,4.149219,0.325064,3.245715,1.420976,2.571434,0.463740,0.629341,3.179889,2.452041,0.782969,1.422385
0,461,-1,4,0,0,30,1,-2,-3,1,0,197.000,-197.000,1125862,17304,-782,-3974,-534,-45,51,34987,-20895,5678,7,13298,1971,-44464,556601,165,-380,2331,9376,-0.637955,4.393545,0.487264,0.433210,28.471904,1.369240,-1.620066,-2.613844,-0.380458,3.854672,0.151195,0.670738,7.904616,1.656361,-1.000094,-0.105691,0.380458,3.854672,0.151195,0.670738,7.904616,1.656361,1.000094,0.105691,1.283504,2.761602,0.443325,0.643042,3.768129,2.490551,0.819327,1.272564
0,462,0,3,1,1,23,4,0,-1,1,0,197.000,-197.000,1125862,17304,-782,-3974,-534,-45,51,34987,-20895,5678,7,13298,1971,-44464,556601,165,-380,2331,9376,0.362045,3.393545,1.487264,1.433210,21.471904,4.369240,0.379934,-0.613844,0.266487,1.227898,0.495171,0.718645,0.389108,2.002870,0.430096,0.814811,0.266487,1.227898,0.495171,0.718645,0.389108,2.002870,0.430096,0.814811,1.186011,2.572665,0.430741,0.603910,3.675115,2.229549,0.778778,1.289092
0,462,-3,1,0,0,13,1,-1,1,1,0,197.000,-197.000,1125862,17304,-782,-3974,-534,-45,51,34987,-20895,5678,7,13298,1971,-44464,556601,165,-380,2331,9376,-2.637955,1.393545,0.487264,0.433210,11.471904,1.369240,-0.620066,1.386156,-1.175783,-0.332109,-0.217145,-0.121021,-4.133994,-0.428902,-0.245137,1.210753,1.175783,0.332109,0.217145,0.121021,4.133994,0.428902,0.245137,1.210753,0.632600,2.478521,0.428521,0.595765,3.376671,2.064568,0.773781,1.274926
0,476,-2,-7,-2,-3,10,-4,-1,-5,1,0,197.000,-197.000,1125862,17304,-782,-3974,-534,-45,51,34987,-20895,5678,7,13298,1971,-44464,556601,165,-380,2331,9376,-1.637955,-6.606455,-1.512736,-2.566790,8.471904,-3.630760,-0.620066,-4.613844,-0.075611,-3.583943,-0.953675,-1.342465,-3.068591,-2.335168,-0.105442,-2.060030,0.075611,3.583943,0.953675,1.342465,3.068591,2.335168,0.105442,2.060030,0.632876,2.640284,0.476675,0.676877,3.473549,2.142249,0.757119,1.387042
0,476,5,3,0,0,28,4,1,3,1,0,197.000,-197.000,1125862,17304,-782,-3974,-534,-45,51,34987,-20895,5678,7,13298,1971,-44464,556601,165,-380,2331,9376,5.362045,3.393545,0.487264,0.433210,26.471904,4.369240,1.379934,3.386156,2.978432,2.759780,0.450062,0.712966,6.422543,2.436650,0.814918,2.554998,2.978432,2.759780,0.450062,0.712966,6.422543,2.436650,0.814918,2.554998,0.989846,2.738353,0.487579,0.701662,3.819769,2.236452,0.765862,1.500026
0,477,0,4,0,1,26,2,-1,-1,1,0,197.000,-197.000,1125862,17304,-782,-3974,-534,-45,51,34987,-20895,5678,7,13298,1971,-44464,556601,165,-380,2331,9376,0.362045,4.393545,0.487264,1.433210,24.471904,2.369240,-0.620066,-0.613844,-0.869550,1.617218,0.193588,0.736809,1.902297,0.187819,-0.509747,-0.621548,0.869550,1.617218,0.193588,0.736809,1.902297,0.187819,0.509747,0.621548,0.986910,2.494633,0.373358,0.716185,3.729649,2.059495,0.731201,1.451359
0,477,3,1,0,2,3,-2,0,1,1,0,197.000,-197.000,1125862,17304,-782,-3974,-534,-45,51,34987,-20895,5678,7,13298,1971,-44464,556601,165,-380,2331,9376,3.362045,1.393545,0.487264,2.433210,1.471904,-1.630760,0.379934,1.386156,0.916384,-0.594785,0.083269,0.747065,-9.074890,-1.639758,0.210876,0.592922,0.916384,0.594785,0.083269,0.747065,9.074890,1.639758,0.210876,0.592922,1.016798,2.446171,0.362220,0.741229,4.448688,1.958215,0.724178,1.450415
0,499,-6,-7,0,-4,13,-4,-1,-7,1,0,197.000,-197.000,1125862,17304,-782,-3974,-534,-45,51,34987,-20895,5678,7,13298,1971,-44464,556601,165,-380,2331,9376,-5.637955,-6.606455,0.487264,-3.566790,11.471904,-3.630760,-0.620066,-6.613844,-3.477057,-3.696930,0.035817,-2.259479,0.397923,-1.565592,-0.339431,-3.186054,3.477057,3.696930,0.035817,2.259479,0.397923,1.565592,0.339431,3.186054,1.377471,2.636034,0.360122,0.951829,4.443019,1.990524,0.674113,1.654614
0,499,1,3,0,0,24,4,1,0,1,0,197.000,-197.000,1125862,17304,-782,-3974,-534,-45,51,34987,-20895,5678,7,13298,1971,-44464,556601,165,-380,2331,9376,1.362045,3.393545,0.487264,0.433210,22.471904,4.369240,1.379934,0.386156,1.515346,2.711180,0.015406,0.748662,4.902662,2.767673,0.714271,1.640517,1.515346,2.711180,0.015406,0.748662,4.902662,2.767673,0.714271,1.640517,1.435773,2.729082,0.359732,0.969640,4.453949,2.108616,0.663657,1.708787
0,500,0,2,-1,0,10,0,-2,5,1,0,197.000,-197.000,1125862,17304,-782,-3974,-534,-45,51,34987,-20895,5678,7,13298,1971,-44464,556601,165,-380,2331,9376,0.362045,2.393545,-0.512736,0.433210,8.471904,0.369240,-1.620066,5.386156,0.221669,0.736041,-0.423510,0.322027,-3.913096,-0.530069,-0.983175,2.856328,0.221669,0.736041,0.423510,0.322027,3.913096,0.530069,0.983175,2.856328,1.394803,2.600606,0.377046,0.962173,4.572870,2.000023,0.707216,1.864869
0,500,-3,-1,-2,3,-5,1,-1,3,1,0,197.000,-197.000,1125862,17304,-782,-3974,-534,-45,51,34987,-20895,5678,7,13298,1971,-44464,556601,165,-380,2331,9376,-2.637955,-0.606455,-1.512736,3.433210,-6.528096,1.369240,-0.620066,3.386156,-1.195061,-0.973811,-0.612303,1.428925,-8.135211,0.202135,0.007237,0.368338,1.195061,0.973811,0.612303,1.428925,8.135211,0.202135,0.007237,0.368338,1.428597,2.409024,0.411015,1.033915,4.886791,1.900310,0.570259,1.843552
0,521,-2,-8,1,-2,11,-8,-3,1,1,0,197.000,-197.000,1125862,17304,-782,-3974,-534,-45,51,34987,-20895,5678,7,13298,1971,-44464,556601,165,-380,2331,9376,-1.637955,-7.606455,1.487264,-1.566790,9.471904,-7.630760,-2.620066,1.386156,-0.083903,-3.429827,1.027035,-1.536050,3.382932,-3.784282,-0.857160,-0.701837,0.083903,3.429827,1.027035,1.536050,3.382932,3.784282,0.857160,0.701837,1.426531,2.569277,0.481014,1.103958,4.969723,2.152334,0.611110,1.850273
0,521,-2,2,-3,0,13,3,2,2,1,0,197.000,-197.000,1125862,17304,-782,-3974,-534,-45,51,34987,-20895,5678,7,13298,1971,-44464,556601,165,-380,2331,9376,-1.637955,2.393545,-2.512736,0.433210,11.471904,3.369240,2.379934,2.386156,-0.036090,2.826071,-1.278780,0.199562,2.315395,3.103743,1.781986,0.128251,0.036090,2.826071,1.278780,0.199562,2.315395,3.103743,1.781986,0.128251,1.413104,2.652147,0.588042,1.091476,4.922570,2.278099,0.747984,1.809318
0,522,0,0,1,0,12,0,-1,1,1,0,197.000,-197.000,1125862,17304,-782,-3974,-534,-45,51,34987,-20895,5678,7,13298,1971,-44464,556601,165,-380,2331,9376,0.362045,0.393545,1.487264,0.433210,10.471904,0.369240,-0.620066,1.386156,0.844749,0.355323,1.170496,0.085839,0.565799,0.044624,-0.523912,-0.374971,0.844749,0.355323,1.170496,0.085839,0.565799,0.044624,0.523912,0.374971,1.430693,2.424447,0.659416,1.021568,4.922077,1.990015,0.756002,1.590974
0,522,-3,-1,1,0,-7,1,0,-1,1,0,197.000,-197.000,1125862,17304,-782,-3974,-534,-45,51,34987,-20895,5678,7,13298,1971,-44464,556601,165,-380,2331,9376,-2.637955,-0.606455,1.487264,0.433210,-8.528096,1.369240,0.379934,-0.613844,-0.927052,-0.277299,0.503473,0.036922,-7.929221,0.449331,0.204783,-1.021562,0.927052,0.277299,0.503473,0.036922,7.929221,0.449331,0.204783,1.021562,1.448423,2.195932,0.671790,1.005765,4.924903,1.943866,0.709290,1.613983
0,537,1,-7,0,-3,8,-8,0,-5,1,0,197.000,-197.000,1125862,17304,-782,-3974,-534,-45,51,34987,-20895,5678,7,13298,1971,-44464,556601,165,-380,2331,9376,1.362045,-6.606455,0.487264,-2.566790,6.471904,-7.630760,0.379934,-4.613844,1.321787,-2.700095,-0.213574,-1.274528,3.041400,-3.677954,0.088085,-2.159956,1.321787,2.700095,0.213574,1.274528,3.041400,3.677954,0.088085,2.159956,1.489178,2.288050,0.661095,1.044368,4.990448,2.111474,0.700310,1.700224
0,537,0,4,0,1,17,4,1,-1,1,0,197.000,-197.000,1125862,17304,-782,-3974,-534,-45,51,34987,-20895,5678,7,13298,1971,-44464,556601,165,-380,2331,9376,0.362045,4.393545,0.487264,1.433210,15.471904,4.369240,1.379934,-0.613844,0.138412,3.570091,-0.091866,1.172325,5.179444,3.579615,0.468025,0.791470,0.138412,3.570091,0.091866,1.172325,5.179444,3.579615,0.468025,0.791470,1.456115,2.477436,0.659000,1.089874,5.059650,2.315263,0.708370,1.682498
0,537,2,3,-2,2,15,2,0,-1,1,0,197.000,-197.000,1125862,17304,-782,-3974,-534,-45,51,34987,-20895,5678,7,13298,1971,-44464,556601,165,-380,2331,9376,2.362045,3.393545,-1.512736,2.433210,13.471904,2.369240,0.379934,-0.613844,0.919809,1.105490,-0.899788,0.934396,1.367595,0.679450,-0.228822,0.340440,0.919809,1.105490,0.899788,0.934396,1.367595,0.679450,0.228822,0.340440,1.476582,2.303803,0.653565,1.058990,5.006102,2.236943,0.710446,1.592468
0,537,2,-1,1,2,-4,-2,1,1,1,0,197.000,-197.000,1125862,17304,-782,-3974,-534,-45,51,34987,-20895,5678,7,13298,1971,-44464,556601,165,-380,2331,9376,2.362045,-0.606455,1.487264,2.433210,-5.528096,-1.630760,1.379934,1.386156,0.395643,-1.245034,0.903378,0.401918,-7.584339,-1.428289,0.331712,1.006708,0.395643,1.245034,0.903378,0.401918,7.584339,1.428289,0.331712,1.006708,1.248131,2.207760,0.686273,1.047230,5.120882,2.173831,0.682025,1.463577
0,559,-2,-7,0,-3,10,-6,-3,-2,1,0,197.000,-197.000,1125862,17304,-782,-3974,-534,-45,51,34987,-20895,5678,7,13298,1971,-44464,556601,165,-380,2331,9376,-1.637955,-6.606455,0.487264,-2.566790,8.471904,-5.630760,-2.620066,-1.613844,-1.550365,-3.116353,-0.041561,-1.977803,2.759609,-2.334905,-1.577864,-0.857387,1.550365,3.116353,0.041561,1.977803,2.759609,2.334905,1.577864,0.857387,1.294415,2.319715,0.684410,1.156425,5.148680,2.261069,0.790209,1.472064
0,559,0,4,-3,1,20,4,0,1,1,0,197.000,-197.000,1125862,17304,-782,-3974,-534,-45,51,34987,-20895,5678,7,13298,1971,-44464,556601,165,-380,2331,9376,0.362045,4.393545,-2.512736,1.433210,18.471904,4.369240,0.379934,1.386156,0.193404,3.391044,-1.308286,0.869821,5.488372,3.297036,0.611712,0.921616,0.193404,3.391044,1.308286,0.869821,5.488372,3.297036,0.611712,0.921616,1.272084,2.485393,0.768232,1.162539,4.772640,2.386805,0.804973,1.484092
0,560,-4,1,1,0,13,1,0,1,1,0,197.000,-197.000,1125862,17304,-782,-3974,-534,-45,51,34987,-20895,5678,7,13298,1971,-44464,556601,165,-380,2331,9376,-3.637955,1.393545,1.487264,0.433210,11.471904,1.369240,0.379934,1.386156,-1.637355,0.168202,1.157804,-0.055995,-0.650206,0.127766,0.263120,0.396420,1.637355,0.168202,1.157804,0.055995,0.650206,0.127766,0.263120,0.396420,0.972691,2.281001,0.828154,0.993509,4.774619,2.350090,0.802931,1.220118
0,560,1,1,0,0,-3,-2,-1,2,1,0,197.000,-197.000,1125862,17304,-782,-3974,-534,-45,51,34987,-20895,5678,7,13298,1971,-44464,556601,165,-380,2331,9376,1.362045,1.393545,0.487264,0.433210,-4.528096,-1.630760,-0.620066,2.386156,1.446396,0.072350,0.067877,-0.024085,-7.161860,-1.235452,-0.316959,0.600651,1.446396,0.072350,0.067877,0.024085,7.161860,1.235452,0.316959,0.600651,0.965164,2.162938,0.828343,0.973174,4.974319,2.254951,0.784495,1.149879
0,582,-6,-9,0,-2,8,-5,-2,-3,1,0,197.000,-197.000,1125862,17304,-782,-3974,-534,-45,51,34987,-20895,5678,7,13298,1971,-44464,556601,165,-380,2331,9376,-5.637955,-8.606455,0.487264,-1.566790,6.471904,-4.630760,-1.620066,-2.613844,-2.388807,-4.270244,0.029197,-0.870633,1.650924,-1.821822,-0.566472,-1.892320,2.388807,4.270244,0.029197,0.870633,1.650924,1.821822,0.566472,1.892320,1.155695,2.437643,0.820610,0.996897,4.883113,2.302566,0.754525,0.997618
0,582,2,1,1,1,13,2,0,-1,1,0,197.000,-197.000,1125862,17304,-782,-3974,-534,-45,51,34987,-20895,5678,7,13298,1971,-44464,556601,165,-380,2331,9376,2.362045,1.393545,1.487264,1.433210,11.471904,2.369240,0.379934,-0.613844,2.413578,2.464577,0.442695,0.915918,2.860804,2.227323,0.616613,0.046317,2.413578,2.464577,0.442695,0.915918,2.860804,2.227323,0.616613,0.046317,1.284413,2.511620,0.812785,0.952827,4.438707,2.377656,0.772309,0.992826
0,583,-1,2,-1,1,16,2,0,3,1,0,197.000,-197.000,1125862,17304,-782,-3974,-534,-45,51,34987,-20895,5678,7,13298,1971,-44464,556601,165,-380,2331,9376,-0.637955,2.393545,-0.512736,1.433210,14.471904,2.369240,0.379934,3.386156,-0.252241,1.490241,-0.669854,0.393970,2.520945,0.958053,0.265228,1.740468,0.252241,1.490241,0.669854,0.393970,2.520945,0.958053,0.265228,1.740468,1.285985,2.372046,0.785702,0.866276,4.397569,2.167001,0.740949,1.080228
0,583,-1,-1,-1,-1,-6,-1,1,1,1,0,197.000,-197.000,1125862,17304,-782,-3974,-534,-45,51,34987,-20895,5678,7,13298,1971,-44464,556601,165,-380,2331,9376,-0.637955,-0.606455,-0.512736,-0.566790,-7.528096,-0.630760,1.379934,1.386156,-0.108498,-0.649402,-0.288128,-0.690812,-8.378651,-0.878316,0.544220,-0.111634,0.108498,0.649402,0.288128,0.690812,8.378651,0.878316,0.544220,0.111634,1.286276,2.255271,0.711654,0.884125,4.895926,2.015666,0.585954,1.080097
0,597,4,-6,-1,-3,10,-9,-1,-6,1,0,197.000,-197.000,1125862,17304,-782,-3974,-534,-45,51,34987,-20895,5678,7,13298,1971,-44464,556601,165,-380,2331,9376,4.362045,-5.606455,-0.512736,-2.566790,8.471904,-8.630760,-0.620066,-5.613844,2.104013,-2.430014,-0.123935,-1.157416,3.278220,-3.818887,-0.626184,-3.058973,2.104013,2.430014,0.123935,1.157416,3.278220,3.818887,0.626184,3.058973,1.385546,2.344997,0.640068,0.936396,4.971403,2.259309,0.593080,1.350905
0,597,-1,6,-2,-2,19,3,0,1,1,0,197.000,-197.000,1125862,17304,-782,-3974,-534,-45,51,34987,-20895,5678,7,13298,1971,-44464,556601,165,-380,2331,9376,-0.637955,6.393545,-1.512736,-1.566790,17.471904,3.369240,0.379934,1.386156,-1.245669,4.116400,-0.483445,-0.067710,5.281309,3.518995,0.160792,1.695179,1.245669,4.116400,0.483445,0.067710,5.281309,3.518995,0.160792,1.695179,1.403277,2.589181,0.638964,0.936519,4.713413,2.444295,0.592110,1.398450
0,597,-3,0,0,-1,17,3,0,0,1,0,197.000,-197.000,1125862,17304,-782,-3974,-534,-45,51,34987,-20895,5678,7,13298,1971,-44464,556601,165,-380,2331,9376,-2.637955,0.393545,0.487264,-0.566790,15.471904,3.369240,0.379934,0.386156,-1.396081,-0.810205,0.652325,0.401012,1.411411,1.513648,0.069162,0.299022,1.396081,0.810205,0.652325,0.401012,1.411411,1.513648,0.069162,0.299022,1.408407,2.495996,0.659857,0.878933,4.658093,2.274201,0.591931,1.276247
0,597,-1,0,0,0,4,0,2,-1,1,0,197.000,-197.000,1125862,17304,-782,-3974,-534,-45,51,34987,-20895,5678,7,13298,1971,-44464,556601,165,-380,2331,9376,-0.637955,0.393545,0.487264,0.433210,2.471904,0.369240,2.379934,-0.613844,0.259768,-0.348499,0.280589,0.602626,-4.984674,-0.639334,0.890022,-0.301516,0.259768,0.348499,0.280589,0.602626,4.984674,0.639334,0.890022,0.301516,1.409632,2.308305,0.663651,0.836837,4.642889,2.070248,0.625554,1.261172
0,619,3,-8,-1,-4,9,-5,-1,-5,1,0,197.000,-197.000,1125862,17304,-782,-3974,-534,-45,51,34987,-20895,5678,7,13298,1971,-44464,556601,165,-380,2331,9376,3.362045,-7.606455,-0.512736,-3.566790,7.471904,-4.630760,-0.620066,-4.613844,1.832281,-3.590993,-0.309445,-1.461334,0.006592,-2.425683,-0.907578,-1.850239,1.832281,3.590993,0.309445,1.461334,0.006592,2.425683,0.907578,1.850239,1.471881,2.482351,0.624053,0.889083,4.628480,2.161766,0.668141,1.351593
0,619,-1,4,-2,-1,10,3,0,1,1,0,197.000,-197.000,1125862,17304,-782,-3974,-534,-45,51,34987,-20895,5678,7,13298,1971,-44464,556601,165,-380,2331,9376,-0.637955,4.393545,-1.512736,-0.566790,8.471904,3.369240,0.379934,1.386156,-0.932415,3.617020,-0.563240,0.661836,0.432972,2.397717,0.039754,1.784963,0.932415,3.617020,0.563240,0.661836,0.432972,2.397717,0.039754,1.784963,1.489077,2.643073,0.594820,0.900121,4.162631,2.222198,0.662319,1.407832
0,620,-1,1,-2,0,18,2,0,3,1,0,197.000,-197.000,1125862,17304,-782,-3974,-534,-45,51,34987,-20895,5678,7,13298,1971,-44464,556601,165,-380,2331,9376,-0.637955,1.393545,-1.512736,0.433210,16.471904,2.369240,0.379934,3.386156,-0.401066,0.265403,-0.242270,0.714816,3.627328,0.601209,0.017100,1.628051,0.401066,0.265403,0.242270,0.714816,3.627328,0.601209,0.017100,1.628051,1.434278,2.509417,0.598230,0.753198,4.209911,2.138824,0.510739,1.455613
0,620,0,-1,0,2,0,-1,-1,5,1,0,197.000,-197.000,1125862,17304,-782,-3974,-534,-45,51,34987,-20895,5678,7,13298,1971,-44464,556601,165,-380,2331,9376,0.362045,-0.606455,0.487264,2.433210,-1.528096,-0.630760,-0.620066,5.386156,0.257624,-0.746113,0.756064,1.167741,-6.182209,-1.031807,-0.422781,1.560557,0.257624,0.746113,0.756064,1.167741,6.182209,1.031807,0.422781,1.560557,1.434999,2.348525,0.525787,0.781451,4.278054,1.968287,0.496884,1.494019
0,641,-2,-4,-2,-1,7,-7,-3,-3,1,0,197.000,-197.000,1125862,17304,-782,-3974,-534,-45,51,34987,-20895,5678,7,13298,1971,-44464,556601,165,-380,2331,9376,-1.637955,-3.606455,-1.512736,-0.566790,5.471904,-6.630760,-2.620066,-2.613844,-0.749460,-1.611340,-0.535062,-0.788121,0.351762,-3.024636,-1.042126,-2.769839,0.749460,1.611340,0.535062,0.788121,0.351762,3.024636,1.042126,2.769839,1.381249,2.387259,0.448498,0.809203,4.275557,2.127544,0.565263,1.663991
0,641,0,3,1,1,16,5,1,2,1,0,197.000,-197.000,1125862,17304,-782,-3974,-534,-45,51,34987,-20895,5678,7,13298,1971,-44464,556601,165,-380,2331,9376,0.362045,3.393545,1.487264,1.433210,14.471904,5.369240,1.379934,2.386156,0.537903,2.317859,1.060259,0.521273,4.022533,3.860631,1.272289,0.959273,0.537903,2.317859,1.060259,0.521273,4.022533,3.860631,1.272289,0.959273,1.333822,2.466248,0.530206,0.821083,3.971451,2.341373,0.654194,1.675955
0,642,0,1,-2,-2,19,3,-1,0,1,0,197.000,-197.000,1125862,17304,-782,-3974,-534,-45,51,34987,-20895,5678,7,13298,1971,-44464,556601,165,-380,2331,9376,0.362045,1.393545,-1.512736,-1.566790,17.471904,3.369240,-0.620066,0.386156,0.231372,0.136723,-0.834353,-1.066191,3.020647,0.800325,-0.313015,-0.447654,0.231372,0.136723,0.834353,1.066191,3.020647,0.800325,0.313015,0.447654,1.172734,2.186599,0.575136,0.837395,4.028583,2.300153,0.641909,1.602299
0,642,-1,-4,0,0,-8,-5,-1,3,1,0,197.000,-197.000,1125862,17304,-782,-3974,-534,-45,51,34987,-20895,5678,7,13298,1971,-44464,556601,165,-380,2331,9376,-0.637955,-3.606455,0.487264,0.433210,-9.528096,-4.630760,-0.620066,3.386156,-0.330615,-2.091873,0.501387,0.401665,-10.314393,-3.096842,-0.134639,1.097857,0.330615,2.091873,0.501387,0.401665,10.314393,3.096842,0.134639,1.097857,0.983370,2.158684,0.578567,0.807981,4.821197,2.370945,0.621437,1.628896
0,665,-1,-7,0,-3,8,-8,0,-2,1,0,197.000,-197.000,1125862,17304,-782,-3974,-534,-45,51,34987,-20895,5678,7,13298,1971,-44464,556601,165,-380,2331,9376,-0.637955,-6.606455,0.487264,-2.566790,6.471904,-7.630760,0.379934,-1.613844,-0.142210,-2.190200,0.215665,-1.117638,2.445587,-2.622474,0.372223,-1.678454,0.142210,2.190200,0.215665,1.117638,2.445587,2.622474,0.372223,1.678454,0.981792,2.200893,0.553183,0.854967,4.818424,2.459077,0.625344,1.624241
0,665,1,3,0,-1,14,-1,1,1,1,0,197.000,-197.000,1125862,17304,-782,-3974,-534,-45,51,34987,-20895,5678,7,13298,1971,-44464,556601,165,-380,2331,9376,1.362045,3.393545,0.487264,-0.566790,12.471904,-0.630760,1.379934,1.386156,0.799103,3.359279,0.092765,0.379536,3.632754,1.882933,0.590243,0.568445,0.799103,3.359279,0.092765,0.379536,3.632754,1.882933,0.590243,0.568445,1.004334,2.370624,0.548358,0.840935,4.375549,2.499040,0.628319,1.631057
0,665,3,3,-2,-1,16,2,-1,0,1,0,197.000,-197.000,1125862,17304,-782,-3974,-534,-45,51,34987,-20895,5678,7,13298,1971,-44464,556601,165,-380,2331,9376,3.362045,3.393545,-1.512736,-0.566790,14.471904,2.369240,-0.620066,0.386156,1.203996,1.444948,-0.820371,0.163252,2.422853,2.100327,-0.606388,-0.185627,1.203996,1.444948,0.820371,0.163252,2.422853,2.100327,0.606388,0.185627,0.892202,2.312403,0.589637,0.783191,4.335563,2.349168,0.626931,1.412243
0,665,-2,-2,2,1,9,-3,-2,-4,1,0,197.000,-197.000,1125862,17304,-782,-3974,-534,-45,51,34987,-20895,5678,7,13298,1971,-44464,556601,165,-380,2331,9376,-1.637955,-1.606455,2.487264,1.433210,7.471904,-2.630760,-1.620066,-3.613844,-1.632799,-1.529157,1.367674,0.930494,-1.968798,-1.247255,-0.690966,-1.800391,1.632799,1.529157,1.367674,0.930494,1.968798,1.247255,0.690966,1.800391,0.935746,2.074583,0.681606,0.821526,4.132999,2.178345,0.652149,1.421513
0,680,-2,-6,-1,-1,5,-7,-2,-3,1,0,197.000,-197.000,1125862,17304,-782,-3974,-534,-45,51,34987,-20895,5678,7,13298,1971,-44464,556601,165,-380,2331,9376,-1.637955,-5.606455,-0.512736,-0.566790,3.471904,-6.630760,-1.620066,-2.613844,-0.702326,-2.378292,-0.702123,-0.460034,-2.567397,-2.257035,-0.297210,-0.344277,0.702326,2.378292,0.702123,0.460034,2.567397,2.257035,0.297210,0.344277,0.878429,2.158941,0.685131,0.823732,4.172554,2.223827,0.656708,1.422244
0,680,0,2,-1,-1,17,3,1,-2,1,0,197.000,-197.000,1125862,17304,-782,-3974,-534,-45,51,34987,-20895,5678,7,13298,1971,-44464,556601,165,-380,2331,9376,0.362045,2.393545,-0.512736,-0.566790,15.471904,3.369240,1.379934,-1.613844,0.558177,2.418101,-0.302009,-0.197877,4.057306,3.330531,1.162569,0.282050,0.558177,2.418101,0.302009,0.197877,4.057306,3.330531,1.162569,0.282050,0.888297,2.251668,0.685781,0.809563,4.100154,2.389252,0.686458,1.421959
0,680,2,4,1,1,21,3,1,0,1,0,197.000,-197.000,1125862,17304,-782,-3974,-534,-45,51,34987,-20895,5678,7,13298,1971,-44464,556601,165,-380,2331,9376,2.362045,4.393545,1.487264,1.433210,19.471904,3.369240,1.379934,0.386156,1.100365,1.900386,0.730368,0.775159,3.465741,1.432583,0.500063,0.981593,1.100365,1.900386,0.730368,0.775159,3.465741,1.432583,0.500063,0.981593,0.797341,2.099258,0.708208,0.738766,4.203476,2.331274,0.655935,1.358773
0,680,-1,-1,0,0,1,-1,-2,0,1,0,197.000,-197.000,1125862,17304,-782,-3974,-534,-45,51,34987,-20895,5678,7,13298,1971,-44464,556601,165,-380,2331,9376,-0.637955,-0.606455,0.487264,0.433210,-0.528096,-0.630760,-1.620066,0.386156,-0.817102,-1.333257,-0.115979,-0.096712,-7.111987,-1.104340,-1.075314,0.422219,0.817102,1.333257,0.115979,0.096712,7.111987,1.104340,1.075314,0.422219,0.788253,1.897199,0.692719,0.717744,4.611801,2.260819,0.716052,1.277270
0,701,-2,-5,-1,-3,11,-7,-2,-4,1,0,197.000,-197.000,1125862,17304,-782,-3974,-534,-45,51,34987,-20895,5678,7,13298,1971,-44464,556601,165,-380,2331,9376,-1.637955,-4.606455,-0.512736,-2.566790,9.471904,-6.630760,-1.620066,-3.613844,-0.781602,-2.294028,-0.480023,-1.332009,1.242240,-3.055835,-0.462532,-1.538934,0.781602,2.294028,0.480023,1.332009,1.242240,3.055835,0.462532,1.538934,0.808387,1.992544,0.701517,0.778068,4.520963,2.398436,0.726630,1.269354
0,701,-2,1,-1,2,23,3,-2,-2,1,0,197.000,-197.000,1125862,17304,-782,-3974,-534,-45,51,34987,-20895,5678,7,13298,1971,-44464,556601,165,-380,2331,9376,-1.637955,1.393545,-0.512736,2.433210,21.471904,3.369240,-1.620066,-1.613844,-0.336195,1.594074,-0.206475,1.577737,5.695969,2.986938,-0.198952,0.198321,0.336195,1.594074,0.206475,1.577737,5.695969,2.986938,0.198952,0.198321,0.810446,2.027800,0.674048,0.828126,4.475105,2.512712,0.719757,1.200048
0,703,-1,1,-1,1,22,2,0,0,1,0,197.000,-197.000,1125862,17304,-782,-3974,-534,-45,51,34987,-20895,5678,7,13298,1971,-44464,556601,165,-380,2331,9376,-0.637955,1.393545,-0.512736,1.433210,20.471904,2.369240,0.379934,0.386156,0.285527,0.685669,-0.088813,0.248506,2.019907,0.854654,0.774696,0.945578,0.285527,0.685669,0.088813,0.248506,2.019907,0.854654,0.774696,0.945578,0.789002,1.989999,0.659131,0.803640,4.506568,2.390070,0.695231,0.977743
0,703,1,-1,1,0,-2,-4,0,1,1,0,197.000,-197.000,1125862,17304,-782,-3974,-534,-45,51,34987,-20895,5678,7,13298,1971,-44464,556601,165,-380,2331,9376,1.362045,-0.606455,1.487264,0.433210,-3.528096,-3.630760,0.379934,1.386156,0.983088,-0.565342,0.822071,-0.323245,-9.454438,-2.213200,0.333225,0.836864,0.983088,0.565342,0.822071,0.323245,9.454438,2.213200,0.333225,0.836864,0.819079,1.897150,0.634373,0.796173,5.053526,2.235555,0.612906,0.969678
0,717,2,-5,0,-4,11,-6,-1,-5,1,0,197.000,-197.000,1125862,17304,-782,-3974,-534,-45,51,34987,-20895,5678,7,13298,1971,-44464,556601,165,-380,2331,9376,2.362045,-4.606455,0.487264,-3.566790,9.471904,-5.630760,-0.620066,-4.613844,0.852998,-1.963720,-0.076534,-1.859585,1.525075,-1.812251,-0.286804,-2.220853,0.852998,1.963720,0.076534,1.859585,1.525075,1.812251,0.286804,2.220853,0.847962,1.968066,0.594242,0.894259,5.005250,2.277399,0.611989,1.130602
0,717,-2,3,-1,2,13,2,0,1,1,0,197.000,-197.000,1125862,17304,-782,-3974,-534,-45,51,34987,-20895,5678,7,13298,1971,-44464,556601,165,-380,2331,9376,-1.637955,3.393545,-0.512736,2.433210,11.471904,2.369240,0.379934,1.386156,-1.353640,2.596424,-0.463056,1.780943,1.516263,2.661576,0.306772,1.625549,1.353640,2.596424,0.463056,1.780943,1.516263,2.661576,0.306772,1.625549,0.917667,2.010534,0.592016,1.007337,4.197344,2.237747,0.616408,1.175122
0,718,2,3,-1,0,15,2,1,4,1,0,197.000,-197.000,1125862,17304,-782,-3974,-534,-45,51,34987,-20895,5678,7,13298,1971,-44464,556601,165,-380,2331,9376,2.362045,3.393545,-0.512736,0.433210,13.471904,2.369240,1.379934,4.386156,1.138296,1.116816,-0.199177,-0.094224,1.512473,1.144841,0.562090,1.989617,1.138296,1.116816,0.199177,0.094224,1.512473,1.144841,0.562090,1.989617,0.966033,1.946458,0.591603,0.962362,4.165799,2.147066,0.626601,1.209313
0,718,-1,-1,-2,0,-2,-4,1,3,1,0,197.000,-197.000,1125862,17304,-782,-3974,-534,-45,51,34987,-20895,5678,7,13298,1971,-44464,556601,165,-380,2331,9376,-0.637955,-0.606455,-1.512736,0.433210,-3.528096,-3.630760,1.379934,3.386156,-0.800787,-1.240162,-0.515810,-0.040529,-6.661749,-2.088381,0.241775,0.425670,0.800787,1.240162,0.515810,0.040529,6.661749,2.088381,0.241775,0.425670,0.966132,1.758551,0.606946,0.957062,4.425062,2.160595,0.609852,1.205114
0,740,0,-7,0,-4,10,-6,0,-4,1,0,197.000,-197.000,1125862,17304,-782,-3974,-534,-45,51,34987,-20895,5678,7,13298,1971,-44464,556601,165,-380,2331,9376,0.362045,-6.606455,0.487264,-3.566790,8.471904,-5.630760,0.379934,-3.613844,0.085689,-3.114257,0.638404,-1.737979,2.296176,-1.758561,-0.326140,-2.827859,0.085689,3.114257,0.638404,1.737979,2.296176,1.758561,0.326140,2.827859,0.911259,1.906862,0.591120,1.062930,4.420234,2.138684,0.594351,1.421632
0,740,-1,2,-1,0,15,5,0,0,1,0,197.000,-197.000,1125862,17304,-782,-3974,-534,-45,51,34987,-20895,5678,7,13298,1971,-44464,556601,165,-380,2331,9376,-0.637955,2.393545,-0.512736,0.433210,13.471904,5.369240,0.379934,0.386156,-0.393279,2.531672,-0.155536,0.972978,3.138351,3.975079,-0.140285,0.504181,0.393279,2.531672,0.155536,0.972978,3.138351,3.975079,0.140285,0.504181,0.806852,1.981644,0.466413,1.065643,4.468235,2.364638,0.566177,1.344495
0,740,0,2,0,1,19,4,-1,0,1,0,197.000,-197.000,1125862,17304,-782,-3974,-534,-45,51,34987,-20895,5678,7,13298,1971,-44464,556601,165,-380,2331,9376,0.362045,2.393545,0.487264,1.433210,17.471904,4.369240,-0.620066,0.386156,0.260973,1.088964,0.363235,0.848650,3.070465,1.279690,-0.490478,0.216866,0.260973,1.088964,0.363235,0.848650,3.070465,1.279690,0.490478,0.216866,0.787808,1.899367,0.437896,1.082554,4.490847,2.311841,0.575700,1.342594
0,740,-3,-4,0,0,-8,-4,-2,1,1,0,197.000,-197.000,1125862,17304,-782,-3974,-534,-45,51,34987,-20895,5678,7,13298,1971,-44464,556601,165,-380,2331,9376,-2.637955,-3.606455,0.487264,0.433210,-9.528096,-3.630760,-1.620066,1.386156,-1.178155,-2.112415,0.156241,-0.065101,-10.292964,-2.890650,-0.641109,0.523419,1.178155,2.112415,0.156241,0.065101,10.292964,2.890650,0.641109,0.523419,0.835185,1.873145,0.432414,1.081401,5.153579,2.269172,0.514051,1.347756
5,761,-1,-5,0,-2,10,-6,-4,-5,1,0,197.000,-192.000,1125862,17304,-782,-3974,-534,-45,51,34987,-20895,5678,7,13298,1971,-44464,556601,165,-380,2331,9376,-0.637955,-4.606455,0.487264,-1.566790,8.471904,-5.630760,-3.620066,-4.613844,0.353505,-1.338763,0.067205,-0.888275,3.315077,-2.103647,-1.136037,-2.355677,0.353505,1.338763,0.067205,0.888275,3.315077,2.103647,1.136037,2.355677,0.787384,1.838133,0.386266,1.087598,5.146494,2.306218,0.581868,1.464239
5,761,-1,5,1,0,22,5,0,-1,1,0,197.000,-192.000,1125862,17304,-782,-3974,-534,-45,51,34987,-20895,5678,7,13298,1971,-44464,556601,165,-380,2331,9376,-0.637955,5.393545,1.487264,0.433210,20.471904,5.369240,0.379934,-0.613844,0.152056,3.725513,0.459044,0.478193,6.587572,3.826645,1.231895,0.707283,0.152056,3.725513,0.459044,0.478193,6.587572,3.826645,1.231895,0.707283,0.757585,2.059891,0.404094,1.094776,5.096395,2.505489,0.603635,1.472071
6,763,1,3,1,2,20,1,2,2,1,0,197.000,-191.000,1125862,17304,-782,-3974,-534,-45,51,34987,-20895,5678,7,13298,1971,-44464,556601,165,-380,2331,9376,1.362045,3.393545,1.487264,2.433210,18.471904,1.369240,2.379934,2.386156,0.925677,0.742206,0.197451,1.065961,1.973282,-0.074566,1.390156,1.594637,0.925677,0.742206,0.197451,1.065961,1.973282,0.074566,1.390156,1.594637,0.769094,1.976513,0.386805,1.073762,5.112842,2.368726,0.697949,1.476300
6,763,0,-5,-1,0,-19,-3,-2,0,1,0,197.000,-191.000,1125862,17304,-782,-3974,-534,-45,51,34987,-20895,5678,7,13298,1971,-44464,556601,165,-380,2331,9376,0.362045,-4.606455,-0.512736,0.433210,-20.528096,-2.630760,-1.620066,0.386156,-0.031969,-3.121841,-0.775342,-0.401764,-15.926539,-1.752619,-1.122589,-0.174361,0.031969,3.121841,0.775342,0.401764,15.926539,1.752619,1.122589,0.174361,0.763875,2.102673,0.435331,0.993323,6.476257,2.278815,0.757839,1.476084
20,777,1,-8,-2,-3,10,-4,-2,-1,1,0,197.000,-177.000,1125862,17304,-782,-3974,-534,-45,51,34987,-20895,5678,7,13298,1971,-44464,556601,165,-380,2331,9376,1.362045,-7.606455,-1.512736,-2.566790,8.471904,-3.630760,-1.620066,-0.613844,0.416385,-2.633227,-0.763639,-1.463223,5.623371,-1.184002,-0.482866,-0.505135,0.416385,2.633227,0.763639,1.463223,5.623371,1.184002,0.482866,0.505135,0.768157,2.209735,0.480211,1.065462,6.626403,2.289313,0.740342,1.460543
20,777,1,3,-1,0,18,3,0,2,1,0,197.000,-177.000,1125862,17304,-782,-3974,-534,-45,51,34987,-20895,5678,7,13298,1971,-44464,556601,165,-380,2331,9376,1.362045,3.393545,-0.512736,0.433210,16.471904,3.369240,0.379934,2.386156,0.179103,3.598854,0.101667,0.661024,5.859908,2.501673,0.652574,1.073132,0.179103,3.598854,0.101667,0.661024,5.859908,2.501673,0.652574,1.073132,0.723411,2.405249,0.427866,1.076549,6.322754,2.310434,0.755376,1.471536
21,778,-2,1,1,1,10,1,2,3,1,0,197.000,-176.000,1125862,17304,-782,-3974,-534,-45,51,34987,-20895,5678,7,13298,1971,-44464,556601,165,-380,2331,9376,-1.637955,1.393545,1.487264,1.433210,8.471904,1.369240,2.379934,3.386156,-1.213371,0.687725,0.904004,0.714467,-0.920532,0.215788,1.140969,0.891730,1.213371,0.687725,0.904004,0.714467,0.920532,0.215788,1.140969,0.891730,0.759285,2.354477,0.490942,0.973866,6.314397,2.259833,0.810989,1.367449
21,778,0,-2,2,-1,-2,-3,0,2,1,0,197.000,-176.000,1125862,17304,-782,-3974,-534,-45,51,34987,-20895,5678,7,13298,1971,-44464,556601,165,-380,2331,9376,0.362045,-1.606455,2.487264,-0.566790,-3.528096,-2.630760,0.379934,2.386156,0.338358,-0.994594,0.818981,-0.552955,-5.557591,-1.627727,-0.369501,-0.046571,0.338358,0.994594,0.818981,0.552955,5.557591,1.627727,0.369501,0.046571,0.673654,2.265545,0.523085,0.862381,6.474071,2.188628,0.812855,1.296661
43,799,-1,-4,0,-3,8,-5,-1,-3,1,0,197.000,-154.000,1125862,17304,-782,-3974,-534,-45,51,34987,-20895,5678,7,13298,1971,-44464,556601,165,-380,2331,9376,-0.637955,-3.606455,0.487264,-2.566790,6.471904,-4.630760,-0.620066,-2.613844,-0.284596,-1.288084,-0.507999,-1.098119,1.910842,-1.560418,-0.589072,-2.170714,0.284596,1.288084,0.507999,1.098119,1.910842,1.560418,0.589072,2.170714,0.605842,2.272028,0.537789,0.910604,6.481590,2.206898,0.814219,1.317249
43,799,0,3,-1,1,17,5,1,0,1,0,197.000,-154.000,1125862,17304,-782,-3974,-534,-45,51,34987,-20895,5678,7,13298,1971,-44464,556601,165,-380,2331,9376,0.362045,3.393545,-0.512736,1.433210,15.471904,5.369240,1.379934,0.386156,0.307721,2.456903,-0.648645,1.248205,4.693150,3.630172,0.606891,0.356706,0.307721,2.456903,0.648645,1.248205,4.693150,3.630172,0.606891,0.356706,0.572716,2.341671,0.547965,0.969726,6.357228,2.345244,0.827699,1.315785
43,800,2,2,-3,1,23,2,-1,1,1,0,197.000,-154.000,1125862,17304,-782,-3974,-534,-45,51,34987,-20895,5678,7,13298,1971,-44464,556601,165,-380,2331,9376,2.362045,2.393545,-2.512736,1.433210,21.471904,2.369240,-0.620066,1.386156,0.992635,0.626667,-1.139279,0.536898,4.599513,0.271060,-0.599227,0.583569,0.992635,0.626667,1.139279,0.536898,4.599513,0.271060,0.599227,0.583569,0.630761,2.195158,0.603213,0.863252,6.445840,2.298809,0.838532,1.088309
43,800,2,-2,0,-1,-4,-5,-1,-1,1,0,197.000,-154.000,1125862,17304,-782,-3974,-534,-45,51,34987,-20895,5678,7,13298,1971,-44464,556601,165,-380,2331,9376,2.362045,-1.606455,0.487264,-0.566790,-5.528096,-4.630760,-0.620066,-0.613844,0.426968,-1.450993,0.800364,-0.629333,-9.635265,-2.894362,-0.257749,-0.609259,0.426968,1.450993,0.800364,0.629333,9.635265,2.894362,0.257749,0.609259,0.632324,2.123980,0.638665,0.840163,6.890330,2.180422,0.840521,1.092142
65,821,1,-6,0,-4,8,-4,-1,-5,1,0,197.000,-132.000,1125862,17304,-782,-3974,-534,-45,51,34987,-20895,5678,7,13298,1971,-44464,556601,165,-380,2331,9376,1.362045,-5.606455,0.487264,-3.566790,6.471904,-3.630760,-0.620066,-4.613844,-0.246482,-2.344671,0.344266,-1.561108,1.017159,-0.814834,-0.110867,-1.982610,0.246482,2.344671,0.344266,1.561108,1.017159,0.814834,0.110867,1.982610,0.631908,2.195283,0.637914,0.910223,6.846688,2.164416,0.830765,1.212511
65,821,0,3,2,-2,19,4,0,-1,1,0,197.000,-132.000,1125862,17304,-782,-3974,-534,-45,51,34987,-20895,5678,7,13298,1971,-44464,556601,165,-380,2331,9376,0.362045,3.393545,2.487264,-1.566790,17.471904,4.369240,0.379934,-0.613844,-0.536157,2.862699,1.008354,0.188783,5.169017,3.090601,0.382448,0.867753,0.536157,2.862699,1.008354,0.188783,5.169017,3.090601,0.382448,0.867753,0.566299,2.255192,0.691244,0.911454,6.420133,2.184061,0.819304,1.226539
66,823,2,4,-2,0,17,5,0,2,1,0,197.000,-131.000,1125862,17304,-782,-3974,-534,-45,51,34987,-20895,5678,7,13298,1971,-44464,556601,165,-380,2331,9376,2.362045,4.393545,-1.512736,0.433210,15.471904,5.369240,0.379934,2.386156,0.629652,1.661488,-1.286816,0.941475,1.363110,1.759517,0.164505,1.663661,0.629652,1.661488,1.286816,0.941475,1.363110,1.759517,0.164505,1.663661,0.583170,2.270474,0.771864,0.915261,6.369132,2.162212,0.762239,1.142683
66,823,2,-5,-1,0,-3,-1,-1,1,1,0,197.000,-131.000,1125862,17304,-782,-3974,-534,-45,51,34987,-20895,5678,7,13298,1971,-44464,556601,165,-380,2331,9376,2.362045,-4.606455,-0.512736,0.433210,-4.528096,-0.630760,-0.620066,1.386156,0.270836,-3.156561,-0.123370,0.404963,-8.016405,-1.823986,-0.359377,0.285465,0.270836,3.156561,0.123370,0.404963,8.016405,1.823986,0.359377,0.285465,0.586238,2.208024,0.762764,0.912733,6.485085,1.966432,0.694144,1.129519
79,836,-2,-3,-2,-2,10,-4,-3,-3,1,0,197.000,-118.000,1125862,17304,-782,-3974,-534,-45,51,34987,-20895,5678,7,13298,1971,-44464,556601,165,-380,2331,9376,-1.637955,-2.606455,-1.512736,-1.566790,8.471904,-3.630760,-2.620066,-2.613844,-1.604049,-0.497479,-0.483202,-0.686084,2.143626,-2.074972,-1.014854,-1.597757,1.604049,0.497479,0.483202,0.686084,2.143626,2.074972,1.014854,1.597757,0.682828,2.203111,0.771817,0.886308,6.488946,2.043036,0.646037,1.129834
79,836,-1,3,2,1,26,2,-1,0,1,0,197.000,-118.000,1125862,17304,-782,-3974,-534,-45,51,34987,-20895,5678,7,13298,1971,-44464,556601,165,-380,2331,9376,-0.637955,3.393545,2.487264,1.433210,24.471904,2.369240,-0.620066,0.386156,-0.259823,2.366835,1.512703,0.995300,7.804234,1.688297,0.423747,0.603156,0.259823,2.366835,1.512703,0.995300,7.804234,1.688297,0.423747,0.603156,0.686296,2.134877,0.846292,0.919114,5.323407,2.039163,0.583245,1.140324
88,845,-3,1,0,0,23,3,1,-2,1,0,197.000,-109.000,1125862,17304,-782,-3974,-534,-45,51,34987,-20895,5678,7,13298,1971,-44464,556601,165,-380,2331,9376,-2.637955,1.393545,0.487264,0.433210,21.471904,3.369240,1.379934,-1.613844,-0.972032,0.157789,-0.209604,-0.002022,2.066476,1.156335,1.042542,-0.600834,0.972032,0.157789,0.209604,0.002022,2.066476,1.156335,1.042542,0.600834,0.725333,2.015986,0.823222,0.831770,5.136628,2.038029,0.633369,1.143634
88,845,-3,-4,-2,0,-3,-5,1,0,1,0,197.000,-109.000,1125862,17304,-782,-3974,-534,-45,51,34987,-20895,5678,7,13298,1971,-44464,556601,165,-380,2331,9376,-2.637955,-3.606455,-1.512736,0.433210,-4.528096,-4.630760,1.379934,0.386156,-0.418107,-2.082811,-0.950431,-0.000870,-10.294680,-2.943710,0.448435,0.601832,0.418107,2.082811,0.950431,0.000870,10.294680,2.943710,0.448435,0.601832,0.732327,1.857132,0.861092,0.812792,5.612684,2.079782,0.620565,1.118710
103,860,2,-4,-1,-2,15,-5,-1,-1,1,0,197.000,-94.000,1125862,17304,-782,-3974,-534,-45,51,34987,-20895,5678,7,13298,1971,-44464,556601,165,-380,2331,9376,2.362045,-3.606455,-0.512736,-1.566790,13.471904,-4.630760,-0.620066,-0.613844,1.970839,-0.895893,0.021321,-0.860647,3.314339,-1.266197,-0.667384,-0.171266,1.970839,0.895893,0.021321,0.860647,3.314339,1.266197,0.667384,0.171266,0.841774,1.863461,0.826522,0.822847,5.676824,2.106344,0.569148,1.093987
103,860,-5,2,-1,1,22,1,0,-4,1,0,197.000,-94.000,1125862,17304,-782,-3974,-534,-45,51,34987,-20895,5678,7,13298,1971,-44464,556601,165,-380,2331,9376,-4.637955,2.393545,-0.512736,1.433210,20.471904,1.369240,0.379934,-3.613844,-2.163225,2.195462,0.009171,0.920214,4.436573,2.036181,0.143070,-1.364077,2.163225,2.195462,0.009171,0.920214,4.436573,2.036181,0.143070,1.364077,1.017182,1.935489,0.797017,0.846004,5.605896,2.131568,0.561818,1.153066
103,860,-1,3,0,1,19,2,-1,0,1,0,197.000,-94.000,1125862,17304,-782,-3974,-534,-45,51,34987,-20895,5678,7,13298,1971,-44464,556601,165,-380,2331,9376,-0.637955,3.393545,0.487264,1.433210,17.471904,2.369240,-0.620066,0.386156,0.790064,1.374485,0.434081,0.395817,0.617922,1.305972,-0.368597,1.133806,0.790064,1.374485,0.434081,0.395817,0.617922,1.305972,0.368597,1.133806,1.036079,1.939729,0.793890,0.800487,5.585028,2.119312,0.548232,1.041543
103,860,-1,-3,0,0,1,-1,-1,-1,1,0,197.000,-94.000,1125862,17304,-782,-3974,-534,-45,51,34987,-20895,5678,7,13298,1971,-44464,556601,165,-380,2331,9376,-0.637955,-2.606455,0.487264,0.433210,-0.528096,-0.630760,-0.620066,-0.613844,0.339835,-1.989603,0.186714,-0.259881,-7.476664,-0.728663,-0.158547,0.057555,0.339835,1.989603,0.186714,0.259881,7.476664,0.728663,0.158547,0.057555,1.036796,1.901087,0.776337,0.730970,5.797600,1.894232,0.525400,1.037285
125,882,2,-3,1,-2,11,-4,-1,-3,1,0,197.000,-72.000,1125862,17304,-782,-3974,-534,-45,51,34987,-20895,5678,7,13298,1971,-44464,556601,165,-380,2331,9376,2.362045,-2.606455,1.487264,-1.566790,9.471904,-3.630760,-0.620066,-2.613844,1.436585,-0.855800,0.510449,-0.972057,1.085378,-1.603834,-0.068197,-0.835516,1.436585,0.855800,0.510449,0.972057,1.085378,1.603834,0.068197,0.835516,1.073302,1.907458,0.727048,0.762378,5.673201,1.940773,0.500729,1.049523
125,882,5,3,-2,-2,12,1,0,0,1,0,197.000,-72.000,1125862,17304,-782,-3974,-534,-45,51,34987,-20895,5678,7,13298,1971,-44464,556601,165,-380,2331,9376,5.362045,3.393545,-1.512736,-1.566790,10.471904,1.369240,0.379934,0.386156,1.908337,2.212707,-1.070847,-0.418117,0.896997,1.460815,0.400802,0.931023,1.908337,2.212707,1.070847,0.418117,0.896997,1.460815,0.400802,0.931023,1.182828,1.959012,0.751499,0.751942,5.060767,1.822264,0.507403,1.066255
126,883,0,2,-1,0,10,2,1,2,1,0,197.000,-71.000,1125862,17304,-782,-3974,-534,-45,51,34987,-20895,5678,7,13298,1971,-44464,556601,165,-380,2331,9376,0.362045,2.393545,-0.512736,0.433210,8.471904,2.369240,1.379934,2.386156,-1.329837,0.521630,-0.030474,0.680425,-0.474442,1.058486,0.602536,1.260740,1.329837,0.521630,0.030474,0.680425,0.474442,1.058486,0.602536,1.260740,1.233313,1.861314,0.745890,0.651469,5.055051,1.831188,0.531519,0.984716
126,883,-1,-3,1,-2,-16,-4,-1,0,1,0,197.000,-71.000,1125862,17304,-782,-3974,-534,-45,51,34987,-20895,5678,7,13298,1971,-44464,556601,165,-380,2331,9376,-0.637955,-2.606455,1.487264,-1.566790,-17.528096,-3.630760,-0.620066,0.386156,-1.002148,-1.926310,0.847165,-0.567597,-11.387621,-2.125525,-0.601100,-0.317983,1.002148,1.926310,0.847165,0.567597,11.387621,2.125525,0.601100,0.317983,1.253899,1.773182,0.731429,0.666991,5.736529,1.730226,0.545778,0.960782
139,896,-1,-6,-1,-2,10,-3,1,-1,1,0,197.000,-58.000,1125862,17304,-782,-3974,-534,-45,51,34987,-20895,5678,7,13298,1971,-44464,556601,165,-380,2331,9376,-0.637955,-5.606455,-0.512736,-1.566790,8.471904,-2.630760,1.379934,-0.613844,-0.431060,-2.118985,-0.495876,-0.244144,6.285316,-0.484129,0.601718,-0.566912,0.431060,2.118985,0.495876,0.244144,6.285316,0.484129,0.601718,0.566912,1.247885,1.807682,0.658995,0.621146,5.966310,1.670116,0.567276,0.865078
139,896,1,3,1,0,16,6,0,3,1,0,197.000,-58.000,1125862,17304,-782,-3974,-534,-45,51,34987,-20895,5678,7,13298,1971,-44464,556601,165,-380,2331,9376,1.362045,3.393545,1.487264,0.433210,14.471904,6.369240,0.379934,3.386156,0.674858,2.959775,0.646978,0.755258,5.284362,3.662986,-0.171316,1.476696,0.674858,2.959775,0.646978,0.755258,5.284362,3.662986,0.171316,1.476696,1.258773,1.783744,0.680504,0.644090,5.744672,1.873510,0.560958,0.947786
148,904,-3,3,-1,1,22,3,-1,4,1,0,197.000,-49.000,1125862,17304,-782,-3974,-534,-45,51,34987,-20895,5678,7,13298,1971,-44464,556601,165,-380,2331,9376,-2.637955,3.393545,-0.512736,1.433210,20.471904,3.369240,-0.620066,4.386156,-1.430265,1.273107,-0.581984,0.755000,4.853815,0.285174,-0.503826,1.065317,1.430265,1.273107,0.581984,0.755000,4.853815,0.285174,0.503826,1.065317,1.243721,1.811032,0.686004,0.649574,5.861387,1.791176,0.509155,0.892759
148,904,-2,-6,0,0,-15,-6,-2,0,1,0,197.000,-49.000,1125862,17304,-782,-3974,-534,-45,51,34987,-20895,5678,7,13298,1971,-44464,556601,165,-380,2331,9376,-1.637955,-5.606455,0.487264,0.433210,-16.528096,-5.630760,-1.620066,0.386156,-0.185072,-3.323618,0.179804,-0.105383,-13.827245,-3.748564,-0.646850,-1.262314,0.185072,3.323618,0.179804,0.105383,13.827245,3.748564,0.646850,1.262314,1.242766,1.915393,0.556294,0.593280,6.607726,2.002102,0.525642,0.940665
163,919,-4,-5,-2,-2,14,-5,-4,-5,1,0,197.000,-34.000,1125862,17304,-782,-3974,-534,-45,51,34987,-20895,5678,7,13298,1971,-44464,556601,165,-380,2331,9376,-3.637955,-4.606455,-1.512736,-1.566790,12.471904,-4.630760,-3.620066,-4.613844,-0.939879,-0.999473,-0.782933,-0.905602,6.526354,-1.182257,-1.138507,-2.693649,0.939879,0.999473,0.782933,0.905602,6.526354,1.182257,1.138507,2.693649,1.240998,1.933470,0.591700,0.640750,6.811711,2.003183,0.539676,1.173598
163,919,0,1,-2,0,17,1,2,1,1,0,197.000,-34.000,1125862,17304,-782,-3974,-534,-45,51,34987,-20895,5678,7,13298,1971,-44464,556601,165,-380,2331,9376,0.362045,1.393545,-1.512736,0.433210,15.471904,1.369240,2.379934,1.386156,1.316269,2.150909,-0.336768,0.470740,4.097632,2.072287,2.091105,1.422182,1.316269,2.150909,0.336768,0.470740,4.097632,2.072287,2.091105,1.422182,1.285046,1.938788,0.541929,0.652984,6.326824,1.923674,0.767609,1.223083
163,920,-1,2,0,1,9,3,0,-2,1,0,197.000,-34.000,1125862,17304,-782,-3974,-534,-45,51,34987,-20895,5678,7,13298,1971,-44464,556601,165,-380,2331,9376,-0.637955,2.393545,0.487264,1.433210,7.471904,3.369240,0.379934,-1.613844,0.136039,1.355321,0.715417,0.632619,-1.678551,1.751639,0.039188,-0.678677,0.136039,1.355321,0.715417,0.632619,1.678551,1.751639,0.039188,0.678677,1.172699,1.957748,0.574642,0.634087,6.280551,1.950683,0.746672,1.235612
164,920,0,-5,-2,0,-15,-7,-1,-4,1,0,197.000,-33.000,1125862,17304,-782,-3974,-534,-45,51,34987,-20895,5678,7,13298,1971,-44464,556601,165,-380,2331,9376,0.362045,-4.606455,-1.512736,0.433210,-16.528096,-6.630760,-0.620066,-3.613844,0.488652,-2.427982,-0.552546,-0.158024,-11.045279,-3.547920,-0.413280,-1.152197,0.488652,2.427982,0.552546,0.158024,11.045279,3.547920,0.413280,1.152197,1.028604,1.977262,0.593308,0.585974,6.837656,2.099558,0.753828,1.220104
197,942,-3,-4,0,-1,12,-2,-1,-4,1,0,197.000,0.000,1125862,17304,-782,-3974,-534,-45,51,34987,-20895,5678,7,13298,1971,-44464,556601,165,-380,2331,9376,-2.637955,-3.606455,0.487264,-0.566790,10.471904,-1.630760,-0.620066,-3.613844,-1.080222,-0.614227,0.622603,-0.498108,6.862706,0.624592,-0.177767,-0.495602,1.080222,0.614227,0.622603,0.498108,6.862706,0.624592,0.177767,0.495602,1.047277,1.949762,0.605181,0.591521,7.077451,2.077061,0.748872,1.189276
197,942,3,3,0,0,7,1,1,4,1,0,197.000,0.000,1125862,17304,-782,-3974,-534,-45,51,34987,-20895,5678,7,13298,1971,-44464,556601,165,-380,2331,9376,3.362045,3.393545,0.487264,0.433210,5.471904,1.369240,1.379934,4.386156,2.116175,2.746753,0.267804,0.215882,0.801218,1.559069,0.783809,3.227915,2.116175,2.746753,0.267804,0.215882,0.801218,1.559069,0.783809,3.227915,1.186765,2.014379,0.607352,0.590255,6.792884,2.109474,0.776464,1.469144
197,942,-1,1,0,1,13,2,-2,2,1,0,197.000,0.000,1125862,17304,-782,-3974,-534,-45,51,34987,-20895,5678,7,13298,1971,-44464,556601,165,-380,2331,9376,-0.637955,1.393545,0.487264,1.433210,11.471904,2.369240,-1.620066,2.386156,-0.810302,0.321206,0.115192,0.522995,2.925451,1.100749,-0.953265,0.528171,0.810302,0.321206,0.115192,0.522995,2.925451,1.100749,0.953265,0.528171,1.143633,2.003192,0.592632,0.548130,6.831576,2.086310,0.816990,1.458920
197,942,2,-5,1,-1,-2,-3,-1,0,1,0,197.000,0.000,1125862,17304,-782,-3974,-534,-45,51,34987,-20895,5678,7,13298,1971,-44464,556601,165,-380,2331,9376,2.362045,-4.606455,1.487264,-0.566790,-3.528096,-2.630760,-0.620066,0.386156,0.941869,-2.442656,0.479685,-0.635314,-5.193703,-1.677210,0.020103,-0.633087,0.941869,2.442656,0.479685,0.635314,5.193703,1.677210,0.020103,0.633087,1.054105,2.022187,0.534547,0.562840,6.967045,2.097902,0.809955,1.447467
200,956,-1,-4,-1,-2,14,-4,-3,-2,1,1,201.000,-1.000,1125873,17352,-840,-3970,-536,-42,48,35569,-21353,6046,7,13205,2142,-44679,545422,165,-357,2368,9372,-0.637955,-3.606455,-0.512736,-1.566790,12.471904,-3.630760,-2.620066,-1.613844,-0.885277,-0.620539,-0.653943,-0.703408,4.648182,-1.151565,-0.851626,-1.132587,0.885277,0.620539,0.653943,0.703408,4.648182,1.151565,0.851626,1.132587,1.020195,2.024182,0.562335,0.564855,7.075796,2.101402,0.825772,1.439880
200,956,1,4,0,-1,15,3,0,0,1,1,201.000,-1.000,1125873,17352,-840,-3970,-536,-42,48,35569,-21353,6046,7,13205,2142,-44679,545422,165,-357,2368,9372,1.362045,4.393545,0.487264,-0.566790,13.471904,3.369240,0.379934,0.386156,0.479483,3.174175,0.148852,0.127575,2.429489,2.515625,0.924094,0.373106,0.479483,3.174175,0.148852,0.127575,2.429489,2.515625,0.924094,0.373106,0.992716,2.133526,0.516275,0.545171,6.420731,2.131950,0.846810,1.440824
208,964,3,3,0,-2,18,3,-1,-2,1,2,206.000,2.000,1125884,17386,-826,-4022,-536,-38,47,36157,-21808,6419,7,13174,2236,-44966,533463,165,-348,2394,9392,3.362045,3.393545,0.487264,-1.566790,16.471904,3.369240,-0.620066,-1.613844,1.066516,0.935192,0.064027,-0.375262,2.335421,1.082062,-0.032650,-0.699786,1.066516,0.935192,0.064027,0.375262,2.335421,1.082062,0.032650,0.699786,1.026382,2.072120,0.499268,0.550466,6.228449,2.147580,0.831445,1.444990
208,964,-1,-5,-2,-1,-4,-5,-1,-2,1,2,206.000,2.000,1125884,17386,-826,-4022,-536,-38,47,36157,-21808,6419,7,13174,2236,-44966,533463,165,-348,2394,9392,-0.637955,-4.606455,-1.512736,-0.566790,-5.528096,-4.630760,-0.620066,-1.613844,-1.261798,-3.038831,-0.832733,0.268723,-8.458451,-2.975657,-0.014044,-0.301004,1.261798,3.038831,0.832733,0.268723,8.458451,2.975657,0.014044,0.301004,1.065200,2.080278,0.518557,0.517133,6.473743,2.070309,0.830192,1.392375
223,980,-3,-5,0,-1,10,-3,1,-5,1,4,221.000,2.000,1125906,17350,-818,-3978,-535,-43,47,37348,-22707,7186,7,13125,2335,-45090,507026,165,-335,2415,9389,-2.637955,-4.606455,0.487264,-0.566790,8.471904,-2.630760,1.379934,-4.613844,-1.403018,-1.307112,0.502084,0.115587,2.383622,-0.419666,0.854232,-1.419882,1.403018,1.307112,0.502084,0.115587,2.383622,0.419666,0.854232,1.419882,1.062609,2.081784,0.512557,0.477143,6.374352,2.071943,0.850417,1.414797
223,980,0,3,-1,1,11,3,2,3,1,4,221.000,2.000,1125906,17350,-818,-3978,-535,-43,47,37348,-22707,7186,7,13125,2335,-45090,507026,165,-335,2415,9389,0.362045,3.393545,-0.512736,1.433210,9.471904,3.369240,2.379934,3.386156,0.686920,2.878855,-0.214172,0.909991,1.455419,2.400305,0.797573,2.830348,0.686920,2.878855,0.214172,0.909991,1.455419,2.400305,0.797573,2.830348,1.077217,2.033907,0.513499,0.534809,5.208363,1.923743,0.859512,1.568451
223,980,2,4,0,0,20,3,2,3,1,4,221.000,2.000,1125906,17350,-818,-3978,-535,-43,47,37348,-22707,7186,7,13125,2335,-45090,507026,165,-335,2415,9389,2.362045,4.393545,0.487264,0.433210,18.471904,3.369240,2.379934,3.386156,1.155742,1.668437,0.338013,-0.038716,4.497256,1.032459,0.343065,1.217436,1.155742,1.668437,0.338013,0.038716,4.497256,1.032459,0.343065,1.217436,1.092112,2.065008,0.477554,0.477020,5.052656,1.917574,0.809062,1.430957
223,980,3,-5,2,1,-9,-4,-1,0,1,4,221.000,2.000,1125906,17350,-818,-3978,-535,-43,47,37348,-22707,7186,7,13125,2335,-45090,507026,165,-335,2415,9389,3.362045,-4.606455,2.487264,1.433210,-10.528096,-3.630760,-0.620066,0.386156,0.927263,-3.153572,1.005665,0.413483,-10.539522,-2.566857,-1.142844,-0.766746,0.927263,3.153572,1.005665,0.413483,10.539522,2.566857,1.142844,0.766746,1.063188,2.155031,0.540553,0.473214,5.680176,1.959840,0.659952,1.394690
245,1002,1,0,-1,-4,10,-5,1,-4,1,6,243.000,2.000,1125928,17346,-860,-3950,-532,-42,52,38560,-23591,7978,7,13094,2419,-45269,486023,165,-326,2436,9396,1.362045,0.393545,-0.512736,-3.566790,8.471904,-4.630760,1.379934,-3.613844,-0.461423,0.794216,-0.857836,-1.972828,3.639160,-1.534235,0.368694,-2.050351,0.461423,0.794216,0.857836,1.972828,3.639160,1.534235,0.368694,2.050351,1.069698,2.134949,0.555159,0.688004,5.745355,1.946779,0.667186,1.487461
245,1002,-2,1,1,2,17,2,0,3,1,6,243.000,2.000,1125928,17346,-860,-3950,-532,-42,52,38560,-23591,7978,7,13094,2419,-45269,486023,165,-326,2436,9396,-1.637955,1.393545,1.487264,2.433210,15.471904,2.369240,0.379934,3.386156,-1.488884,0.771758,0.491286,1.732233,4.576290,2.351025,-0.271548,2.129024,1.488884,0.771758,0.491286,1.732233,4.576290,2.351025,0.271548,2.129024,1.133817,2.044376,0.551030,0.828189,5.078468,1.812631,0.661969,1.562524
246,1002,-3,2,-1,1,21,4,0,1,1,6,243.000,3.000,1125928,17346,-860,-3950,-532,-42,52,38560,-23591,7978,7,13094,2419,-45269,486023,165,-326,2436,9396,-2.637955,2.393545,-0.512736,1.433210,19.471904,4.369240,0.379934,1.386156,-1.070560,0.762097,-0.648953,0.314960,3.688974,1.871534,-0.116803,0.055498,1.070560,0.762097,0.648953,0.314960,3.688974,1.871534,0.116803,0.055498,1.133162,2.047929,0.553197,0.821742,4.837233,1.872954,0.661000,1.556971
246,1002,-5,-6,0,-4,-11,-3,-3,2,1,6,243.000,3.000,1125928,17346,-860,-3950,-532,-42,52,38560,-23591,7978,7,13094,2419,-45269,486023,165,-326,2436,9396,-4.637955,-5.606455,0.487264,-3.566790,-12.528096,-2.630760,-2.620066,2.386156,-1.320759,-3.113285,0.150998,-2.015206,-12.177603,-2.205940,-1.340650,0.454008,1.320759,3.113285,0.150998,2.015206,12.177603,2.205940,1.340650,0.454008,1.043448,2.085050,0.550030,0.980819,5.826268,1.918833,0.722094,1.301782
260,1016,5,-3,-1,-4,7,-4,-1,-3,1,8,265.000,-5.000,1125950,17302,-822,-3988,-530,-39,49,39795,-24460,8796,7,13073,2470,-45363,470220,165,-321,2447,9398,5.362045,-2.606455,-0.512736,-3.566790,5.471904,-3.630760,-0.620066,-2.613844,3.733257,-0.048728,-0.365187,-0.866814,2.504425,-1.378991,0.283610,-1.955397,3.733257,0.048728,0.365187,0.866814,2.504425,1.378991,0.283610,1.955397,1.427375,2.083322,0.557773,0.998067,5.812238,1.931632,0.679895,1.395644
260,1016,-2,3,-1,2,22,1,0,-4,1,8,265.000,-5.000,1125950,17302,-822,-3988,-530,-39,49,39795,-24460,8796,7,13073,2470,-45363,470220,165,-321,2447,9398,-1.637955,3.393545,-0.512736,2.433210,20.471904,1.369240,0.379934,-3.613844,-1.405145,2.559859,-0.157080,2.207970,7.529290,1.557528,0.552128,-1.271224,1.405145,2.559859,0.157080,2.207970,7.529290,1.557528,0.552128,1.271224,1.454327,2.093349,0.544461,1.146966,5.992049,1.924461,0.695703,1.426402
268,1025,-2,3,1,2,18,4,-1,0,1,8,265.000,3.000,1125950,17302,-822,-3988,-530,-39,49,39795,-24460,8796,7,13073,2470,-45363,470220,165,-321,2447,9398,-1.637955,3.393545,1.487264,2.433210,16.471904,4.369240,-0.620066,0.386156,-0.604404,1.101088,0.792707,0.949728,1.518076,1.960359,-0.192646,1.173746,0.604404,1.101088,0.792707,0.949728,1.518076,1.960359,0.192646,1.173746,1.444015,2.107417,0.557474,1.159576,5.875884,1.970616,0.659431,1.428777
268,1025,-2,-6,3,-2,-11,-4,-3,-3,1,8,265.000,3.000,1125950,17302,-822,-3988,-530,-39,49,39795,-24460,8796,7,13073,2470,-45363,470220,165,-321,2447,9398,-1.637955,-5.606455,3.487264,-1.566790,-12.528096,-3.630760,-2.620066,-2.613844,-0.259976,-3.397609,1.201245,-1.312033,-11.820976,-2.597870,-0.943137,-0.785538,0.259976,3.397609,1.201245,1.312033,11.820976,2.597870,0.943137,0.785538,1.439995,2.132156,0.642079,1.210956,6.639692,1.978223,0.661354,1.440672
283,1039,-3,-4,-1,-4,8,-1,-1,-4,1,10,286.000,-3.000,1125972,17362,-886,-4038,-532,-40,42,41054,-25316,9642,7,13061,2513,-45514,459237,165,-316,2459,9408,-2.637955,-3.606455,-0.512736,-3.566790,6.471904,-0.630760,-0.620066,-3.613844,-0.541962,-0.601163,-1.203846,-1.424626,3.087960,0.172971,0.454595,-0.768025,0.541962,0.601163,1.203846,1.424626,3.087960,0.172971,0.454595,0.768025,1.418915,2.123543,0.717976,1.265434,6.661609,1.957517,0.672364,1.443153
283,1039,-3,1,-2,0,15,1,1,-4,1,10,286.000,-3.000,1125972,17362,-886,-4038,-532,-40,42,41054,-25316,9642,7,13061,2513,-45514,459237,165,-316,2459,9408,-2.637955,1.393545,-1.512736,0.433210,13.471904,1.369240,1.379934,-3.613844,-0.233117,1.892100,-0.947955,1.107762,4.339199,0.934674,1.055811,-0.330356,0.233117,1.892100,0.947955,1.107762,4.339199,0.934674,1.055811,0.330356,1.379665,2.026214,0.728111,1.297620,6.372719,1.806047,0.729167,1.443612
283,1040,0,3,0,1,19,2,1,0,1,10,286.000,-3.000,1125972,17362,-886,-4038,-532,-40,42,41054,-25316,9642,7,13061,2513,-45514,459237,165,-316,2459,9408,0.362045,3.393545,0.487264,1.433210,17.471904,2.369240,1.379934,0.386156,1.190137,1.674134,0.452523,0.906625,3.586993,0.832174,0.454143,1.578448,1.190137,1.674134,0.452523,0.906625,3.586993,0.832174,0.454143,1.578448,1.365300,2.045409,0.725786,1.319688,6.412859,1.816230,0.703060,1.455326
283,1040,0,-5,-1,-1,-13,-8,1,-1,1,10,286.000,-3.000,1125972,17362,-886,-4038,-532,-40,42,41054,-25316,9642,7,13061,2513,-45514,459237,165,-316,2459,9408,0.362045,-4.606455,-0.512736,-0.566790,-14.528096,-7.630760,1.379934,-0.613844,0.511921,-2.720985,-0.235490,-0.470300,-12.221469,-3.943416,0.195343,0.248811,0.511921,2.720985,0.235490,0.470300,12.221469,3.943416,0.195343,0.248811,1.359801,2.029915,0.726258,1.303160,7.186260,1.999478,0.671998,1.245067
305,1062,-2,-2,-1,-2,11,-1,-5,-4,1,12,309.000,-4.000,1125994,17344,-852,-4044,-532,-48,43,42343,-26158,10520,7,13074,2550,-45949,443843,165,-316,2479,9456,-1.637955,-1.606455,-0.512736,-1.566790,9.471904,-0.630760,-4.620066,-3.613844,-0.640077,0.120014,-0.101293,-0.632430,5.066375,1.314748,-2.496794,-1.183386,0.640077,0.120014,0.101293,0.632430,5.066375,1.314748,2.496794,1.183386,1.335258,1.980593,0.721126,1.314035,7.213259,2.011278,0.942581,1.242720
305,1062,2,1,0,0,17,1,-1,2,1,12,309.000,-4.000,1125994,17344,-852,-4044,-532,-48,43,42343,-26158,10520,7,13074,2550,-45949,443843,165,-316,2479,9456,2.362045,1.393545,0.487264,0.433210,15.471904,1.369240,-0.620066,2.386156,1.445225,1.342032,0.386567,0.588242,4.760051,1.425794,0.646584,2.071801,1.445225,1.342032,0.386567,0.588242,4.760051,1.425794,0.646584,2.071801,1.367732,1.827850,0.677094,1.318784,6.761298,1.928683,0.908311,1.344974
306,1063,-5,4,-1,1,18,1,0,0,1,12,309.000,-3.000,1125994,17344,-852,-4044,-532,-48,43,42343,-26158,10520,7,13074,2550,-45949,443843,165,-316,2479,9456,-4.637955,4.393545,-0.512736,1.433210,16.471904,1.369240,0.379934,0.386156,-2.389311,1.867666,-0.263860,0.683161,2.477608,0.613286,0.708256,0.030884,2.389311,1.867666,0.263860,0.683161,2.477608,0.613286,0.708256,0.030884,1.504411,1.882853,0.640988,1.222508,6.723663,1.891706,0.922578,1.228309
306,1063,1,-5,-1,-1,-11,-4,-1,1,1,12,309.000,-3.000,1125994,17344,-852,-4044,-532,-48,43,42343,-26158,10520,7,13074,2550,-45949,443843,165,-316,2479,9456,1.362045,-4.606455,-0.512736,-0.566790,-12.528096,-3.630760,-0.620066,1.386156,1.553089,-3.067877,-0.113496,-0.566421,-11.408247,-1.886885,-0.125490,0.443421,1.553089,3.067877,0.113496,0.566421,11.408247,1.886885,0.125490,0.443421,1.509041,2.043249,0.628129,1.141539,7.280663,1.854199,0.920330,1.094998
320,1076,-1,-3,0,-1,15,-3,2,-2,1,13,320.000,0.000,1126005,17370,-756,-4072,-537,-53,51,42999,-26575,10970,7,13083,2543,-46010,433980,165,-318,2479,9464,-0.637955,-2.606455,0.487264,-0.566790,13.471904,-2.630760,2.379934,-1.613844,-0.192233,-0.459333,0.381318,-0.243638,6.276444,-0.381482,1.236431,-1.099678,0.192233,0.459333,0.381318,0.243638,6.276444,0.381482,1.236431,1.099678,1.482558,2.036775,0.612250,1.140292,7.406069,1.788368,0.977359,1.133657
320,1076,2,4,0,-1,12,4,0,1,1,13,320.000,0.000,1126005,17370,-756,-4072,-537,-53,51,42999,-26575,10970,7,13083,2543,-46010,433980,165,-318,2479,9464,2.362045,4.393545,0.487264,-0.566790,10.471904,4.369240,0.379934,1.386156,1.207723,2.813379,0.164019,-0.104798,1.409318,2.846866,-0.328439,0.817398,1.207723,2.813379,0.164019,0.104798,1.409318,2.846866,0.328439,0.817398,1.475657,2.005366,0.612490,1.005472,6.663280,1.851912,0.913539,1.148120
328,1085,3,4,-1,0,14,4,0,0,1,14,331.000,-3.000,1126016,17380,-814,-4024,-541,-39,49,43660,-26988,11427,7,13080,2547,-46003,424917,165,-317,2480,9462,3.362045,4.393545,-0.512736,0.433210,12.471904,4.369240,0.379934,0.386156,0.949622,1.210137,-0.359586,0.385059,1.466472,1.224541,-0.141273,-0.078544,0.949622,1.210137,0.359586,0.385059,1.466472,1.224541,0.141273,0.078544,1.116451,2.031238,0.612253,0.983817,6.641152,1.844141,0.911172,1.022500
328,1085,6,-6,0,0,-8,-8,0,-1,1,14,331.000,-3.000,1126016,17380,-814,-4024,-541,-39,49,43660,-26988,11427,7,13080,2547,-46003,424917,165,-317,2480,9462,6.362045,-5.606455,0.487264,0.433210,-9.528096,-7.630760,0.379934,-0.613844,1.698876,-3.780840,0.275465,0.165628,-8.832218,-4.634917,-0.060767,-0.463921,1.698876,3.780840,0.275465,0.165628,8.832218,4.634917,0.060767,0.463921,1.145246,2.163080,0.615233,0.788436,6.754820,2.182210,0.899291,0.972343
395,1107,-5,-2,-2,-2,12,0,-2,-1,1,20,397.000,-2.000,1126082,17314,-822,-4028,-536,-36,51,47764,-29364,14324,7,13087,2557,-46121,388939,165,-318,2484,9471,-4.637955,-1.606455,-1.512736,-1.566790,10.471904,0.369240,-1.620066,-0.613844,-4.000752,0.094269,-0.741785,-0.789030,4.803670,1.447445,-0.886411,-0.199549,4.000752,0.094269,0.741785,0.789030,4.803670,1.447445,0.886411,0.199549,1.558455,2.143117,0.610680,0.775676,6.863761,2.153413,0.928545,0.921894
395,1107,-2,2,0,0,27,5,0,0,1,20,397.000,-2.000,1126082,17314,-822,-4028,-536,-36,51,47764,-29364,14324,7,13087,2557,-46121,388939,165,-318,2484,9471,-1.637955,2.393545,0.487264,0.433210,25.471904,5.369240,0.379934,0.386156,-0.430460,1.761094,0.541204,0.520882,8.518279,2.773281,0.478995,0.344303,0.430460,1.761094,0.541204,0.520882,8.518279,2.773281,0.478995,0.344303,1.561150,1.997481,0.539241,0.705758,6.504848,2.168983,0.902800,0.902375
395,1108,1,3,-1,2,24,4,0,2,1,20,397.000,-2.000,1126082,17314,-822,-4028,-536,-36,51,47764,-29364,14324,7,13087,2557,-46121,388939,165,-318,2484,9471,1.362045,3.393545,-0.512736,2.433210,22.471904,4.369240,0.379934,2.386156,1.105253,1.187647,-0.197345,1.084323,2.373613,0.762753,0.206033,1.008370,1.105253,1.187647,0.197345,1.084323,2.373613,0.762753,0.206033,1.008370,1.582234,2.016152,0.435941,0.661142,6.483392,2.178051,0.896280,0.919117
395,1108,-2,-5,1,-1,-10,-5,-3,-3,1,20,397.000,-2.000,1126082,17314,-822,-4028,-536,-36,51,47764,-29364,14324,7,13087,2557,-46121,388939,165,-318,2484,9471,-1.637955,-4.606455,1.487264,-0.566790,-11.528096,-4.630760,-2.620066,-2.613844,-0.815000,-2.930241,0.775388,-0.824002,-13.603660,-3.543140,-1.201787,-1.716945,0.815000,2.930241,0.775388,0.824002,13.603660,3.543140,1.201787,1.716945,1.595941,2.102964,0.410856,0.630836,7.342208,2.361823,0.909318,1.023497
395,1122,1,-5,-2,-1,13,-2,2,0,1,20,397.000,-2.000,1126082,17314,-822,-4028,-536,-36,51,47764,-29364,14324,7,13087,2557,-46121,388939,165,-318,2484,9471,1.362045,-4.606455,-1.512736,-0.566790,11.471904,-1.630760,2.379934,0.386156,0.939848,-1.260403,-0.956887,-0.354433,4.041708,-0.233624,1.633750,0.551889,0.939848,1.260403,0.956887,0.354433,4.041708,0.233624,1.633750,0.551889,1.583966,2.082243,0.468591,0.590097,7.359062,2.352156,1.001389,0.944107
395,1122,0,2,0,-1,17,1,0,2,1,20,397.000,-2.000,1126082,17314,-822,-4028,-536,-36,51,47764,-29364,14324,7,13087,2557,-46121,388939,165,-318,2484,9471,0.362045,2.393545,0.487264,-0.566790,15.471904,1.369240,0.379934,2.386156,-0.025874,2.468809,0.448681,-0.152455,3.459031,1.189919,-0.157538,1.097660,0.025874,2.468809,0.448681,0.152455,3.459031,1.189919,0.157538,1.097660,1.578061,2.059673,0.479579,0.577993,6.658945,2.126740,1.000913,0.986396
395,1123,-1,4,-1,-1,20,3,0,5,1,20,397.000,-2.000,1126082,17314,-822,-4028,-536,-36,51,47764,-29364,14324,7,13087,2557,-46121,388939,165,-318,2484,9471,-0.637955,4.393545,-0.512736,-0.566790,18.471904,3.369240,0.379934,5.386156,-0.441266,1.922198,-0.237142,-0.065576,2.778264,1.372100,-0.067763,1.762553,0.441266,1.922198,0.237142,0.065576,2.778264,1.372100,0.067763,1.762553,1.573188,2.122532,0.482991,0.553005,6.561970,2.129326,0.746237,1.046350
395,1123,-1,-7,0,-2,-10,-6,0,2,1,20,397.000,-2.000,1126082,17314,-822,-4028,-536,-36,51,47764,-29364,14324,7,13087,2557,-46121,388939,165,-318,2484,9471,-0.637955,-6.606455,0.487264,-1.566790,-11.528096,-5.630760,0.379934,2.386156,-0.189804,-3.904693,0.328133,-0.458343,-11.709059,-3.281037,-0.029147,-0.532271,0.189804,3.904693,0.328133,0.458343,11.709059,3.281037,0.029147,0.532271,1.525878,2.337850,0.479893,0.544154,7.157794,2.271072,0.725995,0.899159
396,1144,3,-1,-1,-2,13,-1,0,-6,1,20,397.000,-1.000,1126082,17314,-822,-4028,-536,-36,51,47764,-29364,14324,7,13087,2557,-46121,388939,165,-318,2484,9471,3.362045,-0.606455,-0.512736,-1.566790,11.471904,-0.630760,0.379934,-5.613844,1.638904,0.901268,-0.288995,-0.197150,4.856645,0.739388,-0.012537,-3.670040,1.638904,0.901268,0.288995,0.197150,4.856645,0.739388,0.012537,3.670040,1.453406,2.296608,0.480926,0.515309,7.244331,2.273753,0.700892,1.330603
396,1144,-2,2,0,1,14,3,0,-2,1,20,397.000,-1.000,1126082,17314,-822,-4028,-536,-36,51,47764,-29364,14324,7,13087,2557,-46121,388939,165,-318,2484,9471,-1.637955,2.393545,0.487264,1.433210,12.471904,3.369240,0.379934,-1.613844,-1.445730,1.678077,0.305829,1.205608,2.519156,2.038583,-0.005393,0.141928,1.445730,1.678077,0.305829,1.205608,2.519156,2.038583,0.005393,0.141928,1.445473,2.191636,0.486879,0.588598,6.605856,2.283087,0.700090,1.325858
396,1145,-1,5,0,0,17,1,1,2,1,20,397.000,-1.000,1126082,17314,-822,-4028,-536,-36,51,47764,-29364,14324,7,13087,2557,-46121,388939,165,-318,2484,9471,-0.637955,5.393545,0.487264,0.433210,15.471904,1.369240,1.379934,2.386156,-0.191725,2.012211,0.131548,0.088439,2.373990,0.016596,0.427817,1.781594,0.191725,2.012211,0.131548,0.088439,2.373990,0.016596,0.427817,1.781594,1.445468,2.253311,0.477390,0.585463,6.420752,2.280814,0.627696,1.377766
396,1145,-2,-5,-1,-3,-4,-6,-3,3,1,20,397.000,-1.000,1126082,17314,-822,-4028,-536,-36,51,47764,-29364,14324,7,13087,2557,-46121,388939,165,-318,2484,9471,-1.637955,-4.606455,-0.512736,-2.566790,-5.528096,-5.630760,-2.620066,3.386156,-0.512604,-3.435839,-0.373553,-1.252368,-8.011725,-3.003816,-1.536526,1.196465,0.512604,3.435839,0.373553,1.252368,8.011725,3.003816,1.536526,1.196465,1.415614,2.314144,0.485743,0.673805,6.757886,2.295148,0.744939,1.397415
448,1168,-2,-2,0,-3,12,-1,-3,-1,1,25,453.000,-5.000,1126138,17342,-848,-3978,-537,-40,48,51369,-31205,16942,7,13063,2586,-45994,374014,166,-313,2483,9446,-1.637955,-1.606455,0.487264,-2.566790,10.471904,-0.630760,-2.620066,-0.613844,-0.220490,-0.187470,0.269458,-0.538689,3.436048,0.858631,-0.660916,-1.205903,0.220490,0.187470,0.269458,0.538689,3.436048,0.858631,0.660916,1.205903,1.393923,2.291979,0.481557,0.681285,6.808725,2.283255,0.764663,1.433945
449,1168,2,2,-2,1,19,2,0,0,1,25,453.000,-4.000,1126138,17342,-848,-3978,-537,-40,48,51369,-31205,16942,7,13063,2586,-45994,374014,166,-313,2483,9446,2.362045,2.393545,-1.512736,1.433210,17.471904,2.369240,0.379934,0.386156,1.625705,1.639908,-0.744369,1.488836,4.488924,1.659738,1.006125,-0.088566,1.625705,1.639908,0.744369,1.488836,4.488924,1.659738,1.006125,0.088566,1.387676,2.103380,0.515805,0.787731,6.498157,1.968644,0.810402,1.428771
449,1169,1,3,-1,0,18,7,0,1,1,25,453.000,-4.000,1126138,17342,-848,-3978,-537,-40,48,51369,-31205,16942,7,13063,2586,-45994,374014,166,-313,2483,9446,1.362045,3.393545,-0.512736,0.433210,16.471904,7.369240,0.379934,1.386156,0.269138,1.135520,0.109956,0.210266,1.500713,2.864596,0.432771,0.392041,0.269138,1.135520,0.109956,0.210266,1.500713,2.864596,0.432771,0.392041,0.887430,2.125012,0.477090,0.761058,6.382686,2.076547,0.783586,1.431615
449,1169,-4,-7,0,-1,-8,-6,0,-6,1,25,453.000,-4.000,1126138,17342,-848,-3978,-537,-40,48,51369,-31205,16942,7,13063,2586,-45994,374014,166,-313,2483,9446,-3.637955,-6.606455,0.487264,-0.566790,-9.528096,-5.630760,0.379934,-5.613844,-2.034916,-3.812935,0.477433,-0.339693,-10.538035,-4.359606,0.186151,-2.842324,2.034916,3.812935,0.477433,0.339693,10.538035,4.359606,0.186151,2.842324,1.034444,2.309243,0.472202,0.753706,6.594536,2.262801,0.774657,1.618058
450,1182,1,0,0,-1,26,1,-1,-3,1,25,453.000,-3.000,1126138,17342,-848,-3978,-537,-40,48,51369,-31205,16942,7,13063,2586,-45994,374014,166,-313,2483,9446,1.362045,0.393545,0.487264,-0.566790,24.471904,1.369240,-0.620066,-2.613844,1.275391,1.370873,0.205361,-0.146114,10.091845,1.135729,-0.350066,0.067822,1.275391,1.370873,0.205361,0.146114,10.091845,1.135729,0.350066,0.067822,1.048335,2.316482,0.472446,0.696860,7.096488,2.273949,0.778341,1.595559
450,1182,0,4,0,2,14,3,-1,1,1,25,453.000,-3.000,1126138,17342,-848,-3978,-537,-40,48,51369,-31205,16942,7,13063,2586,-45994,374014,166,-313,2483,9446,0.362045,4.393545,0.487264,2.433210,12.471904,3.369240,-0.620066,1.386156,0.118456,2.310208,0.088333,1.227560,-0.820767,1.348791,-0.150576,1.749718,0.118456,2.310208,0.088333,1.227560,0.820767,1.348791,0.150576,1.749718,1.025945,2.265833,0.425227,0.738073,6.098337,2.098592,0.710120,1.598100
450,1183,1,3,0,0,17,4,0,3,1,25,453.000,-3.000,1126138,17342,-848,-3978,-537,-40,48,51369,-31205,16942,7,13063,2586,-45994,374014,166,-313,2483,9446,1.362045,3.393545,0.487264,0.433210,15.471904,4.369240,0.379934,3.386156,0.481088,0.563568,0.037995,-0.332255,0.937368,1.010301,0.365368,1.612890,0.481088,0.563568,0.037995,0.332255,0.937368,1.010301,0.365368,1.612890,1.002996,2.245710,0.339881,0.737336,6.007134,2.114970,0.568465,1.648631
450,1183,0,-7,-1,-2,-2,-6,-1,-2,1,25,453.000,-3.000,1126138,17342,-848,-3978,-537,-40,48,51369,-31205,16942,7,13063,2586,-45994,374014,166,-313,2483,9446,0.362045,-6.606455,-0.512736,-1.566790,-3.528096,-5.630760,-0.620066,-1.613844,-0.223203,-4.058953,-0.413793,-1.003188,-7.769396,-3.866797,-0.272978,-1.456919,0.223203,4.058953,0.413793,1.003188,7.769396,3.866797,0.272978,1.456919,1.004745,2.405129,0.336704,0.783510,6.288299,2.332374,0.571579,1.668394
480,1205,2,1,-1,-2,27,1,2,-2,1,28,485.000,-5.000,1126171,17350,-842,-4052,-544,-40,46,53615,-32244,18604,7,13062,2596,-46038,369879,165,-312,2486,9447,2.362045,1.393545,-0.512736,-1.566790,25.471904,1.369240,2.379934,-1.613844,0.764265,1.695188,-0.177988,-0.431507,9.132056,1.347705,1.172991,-0.626674,0.764265,1.695188,0.177988,0.431507,9.132056,1.347705,1.172991,0.626674,1.018492,2.392904,0.334089,0.791758,6.704335,2.331358,0.651655,1.609252
480,1205,-1,3,-1,0,18,1,1,3,1,28,485.000,-5.000,1126171,17350,-842,-4052,-544,-40,46,53615,-32244,18604,7,13062,2596,-46038,369879,165,-312,2486,9447,-0.637955,3.393545,-0.512736,0.433210,16.471904,1.369240,1.379934,3.386156,-0.961671,1.589435,-0.076559,0.674666,0.056802,0.579697,0.074410,1.881127,0.961671,1.589435,0.076559,0.674666,0.056802,0.579697,0.074410,1.881127,1.049195,2.194857,0.323022,0.802738,5.929194,2.165708,0.651912,1.679945
480,1206,0,3,-2,0,19,5,2,3,1,28,485.000,-5.000,1126171,17350,-842,-4052,-544,-40,46,53615,-32244,18604,7,13062,2596,-46038,369879,165,-312,2486,9447,0.362045,3.393545,-1.512736,0.433210,17.471904,5.369240,2.379934,3.386156,0.016487,0.683674,-0.463067,0.290198,0.454569,1.969894,0.462143,0.809141,0.016487,0.683674,0.463067,0.290198,0.454569,1.969894,0.462143,0.809141,0.953400,2.189238,0.337186,0.804753,5.786649,2.220004,0.663501,1.380903
480,1206,-3,-8,-1,-4,-5,-6,-2,-2,1,28,485.000,-5.000,1126171,17350,-842,-4052,-544,-40,46,53615,-32244,18604,7,13062,2596,-46038,369879,165,-312,2486,9447,-2.637955,-7.606455,-0.512736,-3.566790,-6.528096,-5.630760,-1.620066,-1.613844,-1.283318,-4.437427,0.230954,-1.595721,-10.127747,-3.884177,-1.521761,-1.802641,1.283318,4.437427,0.230954,1.595721,10.127747,3.884177,1.521761,1.802641,0.936650,2.449103,0.332902,0.851872,6.352837,2.389394,0.778230,1.462041
480,1235,0,1,0,-2,30,1,-2,0,1,28,485.000,-5.000,1126171,17350,-842,-4052,-544,-40,46,53615,-32244,18604,7,13062,2596,-46038,369879,165,-312,2486,9447,0.362045,1.393545,0.487264,-1.566790,28.471904,1.369240,-1.620066,0.386156,0.738408,1.962529,0.529478,0.173895,10.698461,1.340229,-0.654565,0.084891,0.738408,1.962529,0.529478,0.173895,10.698461,1.340229,0.654565,0.084891,0.955842,2.446222,0.360017,0.852812,6.937686,2.416089,0.789413,1.382519
480,1235,2,3,0,0,21,0,1,-1,1,28,485.000,-5.000,1126171,17350,-842,-4052,-544,-40,46,53615,-32244,18604,7,13062,2596,-46038,369879,165,-312,2486,9447,2.362045,3.393545,0.487264,0.433210,19.471904,0.369240,1.379934,-0.613844,1.177889,1.704428,0.227748,0.935071,0.730570,0.146345,1.008857,-0.393622,1.177889,1.704428,0.227748,0.935071,0.730570,0.146345,1.008857,0.393622,0.996978,2.312638,0.351212,0.823232,6.601876,2.279149,0.726110,1.349138
480,1236,-3,3,-1,2,18,4,-1,1,1,28,485.000,-5.000,1126171,17350,-842,-4052,-544,-40,46,53615,-32244,18604,7,13062,2596,-46038,369879,165,-312,2486,9447,-2.637955,3.393545,-0.512736,2.433210,16.471904,4.369240,-0.620066,1.386156,-1.644029,0.733136,-0.332174,1.262481,-0.976164,1.783494,-0.426327,0.690962,1.644029,0.733136,0.332174,1.262481,0.976164,1.783494,0.426327,0.690962,1.087912,2.320383,0.355028,0.877970,6.542898,2.317124,0.713454,1.323028
480,1236,0,-5,1,-1,-3,-7,-3,0,1,28,485.000,-5.000,1126171,17350,-842,-4052,-544,-40,46,53615,-32244,18604,7,13062,2596,-46038,369879,165,-312,2486,9447,0.362045,-4.606455,1.487264,-0.566790,-4.528096,-6.630760,-2.620066,0.386156,0.583252,-3.125743,0.717393,-0.747370,-9.452748,-3.964355,-1.043651,-0.132929,0.583252,3.125743,0.717393,0.747370,9.452748,3.964355,1.043651,0.132929,1.009491,2.426924,0.351039,0.807711,6.910330,2.508959,0.717295,1.323293
486,1241,1,0,0,-1,21,0,-1,-5,1,28,485.000,1.000,1126171,17350,-842,-4052,-544,-40,46,53615,-32244,18604,7,13062,2596,-46038,369879,165,-312,2486,9447,1.362045,0.393545,0.487264,-0.566790,19.471904,0.369240,-0.620066,-4.613844,0.681015,0.806186,-0.121560,-0.321471,6.257303,1.305742,0.411360,-2.207859,0.681015,0.806186,0.121560,0.321471,6.257303,1.305742,0.411360,2.207859,1.023242,2.417495,0.351312,0.810322,7.098485,2.414648,0.716394,1.445100
486,1241,1,1,-2,0,8,5,0,-2,1,28,485.000,1.000,1126171,17350,-842,-4052,-544,-40,46,53615,-32244,18604,7,13062,2596,-46038,369879,165,-312,2486,9447,1.362045,1.393545,-1.512736,0.433210,6.471904,5.369240,0.379934,-1.613844,0.292929,0.776907,-0.912560,0.291860,-2.900280,2.712329,0.607077,0.340728,0.292929,0.776907,0.912560,0.291860,2.900280,2.712329,0.607077,0.340728,0.870274,2.202029,0.408194,0.808989,6.561796,2.235715,0.732851,1.232700
486,1242,1,3,-1,1,18,2,0,-2,1,28,485.000,1.000,1126171,17350,-842,-4052,-544,-40,46,53615,-32244,18604,7,13062,2596,-46038,369879,165,-312,2486,9447,1.362045,3.393545,-0.512736,1.433210,16.471904,2.369240,0.379934,-1.613844,0.125999,1.194449,0.037611,0.555676,3.053848,-0.123738,0.261126,0.146560,0.125999,1.194449,0.037611,0.555676,3.053848,0.123738,0.261126,0.146560,0.801451,2.194677,0.404612,0.821580,6.037271,2.215261,0.730197,1.233189
486,1242,-2,-5,-2,0,-7,-8,0,-1,1,28,485.000,1.000,1126171,17350,-842,-4052,-544,-40,46,53615,-32244,18604,7,13062,2596,-46038,369879,165,-312,2486,9447,-1.637955,-4.606455,-1.512736,0.433210,-8.528096,-7.630760,0.379934,-0.613844,-1.236212,-2.927315,-0.413958,-0.191120,-9.439839,-4.354588,0.112320,0.493177,1.236212,2.927315,0.413958,0.191120,9.439839,4.354588,0.112320,0.493177,0.866303,2.246658,0.418800,0.754962,6.539538,2.476266,0.729705,1.148673
509,1265,-2,0,-1,-1,25,0,-2,-2,1,30,507.000,2.000,1126193,17340,-772,-4016,-532,-43,49,55148,-32905,19749,7,13062,2593,-46015,367242,165,-312,2484,9443,-1.637955,0.393545,-0.512736,-0.566790,23.471904,0.369240,-1.620066,-1.613844,-0.531740,0.891537,0.252078,-0.512344,9.703947,1.568024,-0.811960,-0.218003,0.531740,0.891537,0.252078,0.512344,9.703947,1.568024,0.811960,0.218003,0.868415,2.254231,0.424063,0.762123,7.030575,2.496920,0.755000,1.066316
509,1265,2,3,-1,-1,4,3,-1,1,1,30,507.000,2.000,1126193,17340,-772,-4016,-532,-43,49,55148,-32905,19749,7,13062,2593,-46015,367242,165,-312,2484,9443,2.362045,3.393545,-0.512736,-0.566790,2.471904,3.369240,-0.620066,1.386156,1.491825,1.673892,0.108428,-0.220378,-4.858844,1.964874,0.080883,1.196638,1.491825,1.673892,0.108428,0.220378,4.858844,1.964874,0.080883,1.196638,0.953705,2.026056,0.410413,0.715832,6.841317,2.332888,0.751778,1.042926
509,1266,-2,4,-1,-1,17,5,1,-1,1,30,507.000,2.000,1126193,17340,-772,-4016,-532,-43,49,55148,-32905,19749,7,13062,2593,-46015,367242,165,-312,2484,9443,-1.637955,4.393545,-0.512736,-0.566790,15.471904,5.369240,1.379934,-0.613844,-1.078857,1.150138,0.046639,-0.094793,3.501808,1.705436,0.895063,-0.345555,1.078857,1.150138,0.046639,0.094793,3.501808,1.705436,0.895063,0.345555,0.975177,1.998532,0.407837,0.706936,6.459317,2.349549,0.723958,1.033525
509,1266,-3,-7,1,0,-9,-7,-2,-2,1,30,507.000,2.000,1126193,17340,-772,-4016,-532,-43,49,55148,-32905,19749,7,13062,2593,-46015,367242,165,-312,2484,9443,-2.637955,-6.606455,1.487264,0.433210,-10.528096,-6.630760,-1.620066,-1.613844,-0.894192,-4.236784,0.880334,0.389363,-9.677292,-4.428067,-0.905410,-0.578772,0.894192,4.236784,0.880334,0.389363,9.677292,4.428067,0.905410,0.578772,0.970580,2.257398,0.470392,0.691429,6.957861,2.626201,0.763069,0.916155
538,1294,1,2,-3,-2,20,-1,-1,-2,1,33,541.000,-3.000,1126226,17340,-826,-3986,-538,-48,45,57501,-33850,21525,7,13062,2600,-46035,364325,165,-311,2485,9443,1.362045,2.393545,-2.512736,-1.566790,18.471904,-0.630760,-0.620066,-1.613844,1.335921,2.048833,-1.341882,-0.692794,8.311400,0.676146,0.040687,-0.248951,1.335921,2.048833,1.341882,0.692794,8.311400,0.676146,0.040687,0.248951,1.034158,2.315663,0.578420,0.711577,7.302829,2.579227,0.753085,0.892750
539,1294,0,-1,1,2,11,5,-1,-2,1,33,541.000,-2.000,1126226,17340,-826,-3986,-538,-48,45,57501,-33850,21525,7,13062,2600,-46035,364325,165,-311,2485,9443,0.362045,-0.606455,1.487264,2.433210,9.471904,5.369240,-0.620066,-1.613844,0.144492,-0.409132,1.143353,1.422550,-0.296192,2.871653,0.017501,-0.107083,0.144492,0.409132,1.143353,1.422550,0.296192,2.871653,0.017501,0.107083,0.976390,1.991926,0.651257,0.684841,6.783145,2.482702,0.633835,0.752139
539,1295,0,4,0,0,15,5,0,1,1,33,541.000,-2.000,1126226,17340,-826,-3986,-538,-48,45,57501,-33850,21525,7,13062,2600,-46035,364325,165,-311,2485,9443,0.362045,4.393545,0.487264,0.433210,13.471904,5.369240,0.379934,1.386156,0.062151,1.974700,0.061661,-0.248382,1.593143,1.235203,0.437664,1.244349,0.062151,1.974700,0.061661,0.248382,1.593143,1.235203,0.437664,1.244349,0.956383,1.992785,0.635910,0.686480,6.165780,2.478808,0.620343,0.822070
539,1295,2,-7,-1,-2,-7,-6,-2,0,1,33,541.000,-2.000,1126226,17340,-826,-3986,-538,-48,45,57501,-33850,21525,7,13062,2600,-46035,364325,165,-311,2485,9443,2.362045,-6.606455,-0.512736,-1.566790,-8.528096,-5.630760,-1.620066,0.386156,0.887006,-3.882110,-0.403614,-0.967111,-8.777732,-4.200195,-0.672018,0.105103,0.887006,3.882110,0.403614,0.967111,8.777732,4.200195,0.672018,0.105103,0.933683,2.200039,0.642116,0.689643,6.594103,2.720859,0.586842,0.815794
545,1302,-1,1,0,-2,16,1,0,-1,1,33,541.000,4.000,1126226,17340,-826,-3986,-538,-48,45,57501,-33850,21525,7,13062,2600,-46035,364325,165,-311,2485,9443,-0.637955,1.393545,0.487264,-1.566790,14.471904,1.369240,0.379934,-0.613844,-0.908876,1.771254,0.256528,-0.415990,6.117515,1.204298,0.571214,-0.384928,0.908876,1.771254,0.256528,0.415990,6.117515,1.204298,0.571214,0.384928,0.858900,2.241846,0.639634,0.611655,6.788761,2.698049,0.595573,0.801250
545,1302,-2,2,-1,1,13,-1,-1,4,1,33,541.000,4.000,1126226,17340,-826,-3986,-538,-48,45,57501,-33850,21525,7,13062,2600,-46035,364325,165,-311,2485,9443,-1.637955,2.393545,-0.512736,1.433210,11.471904,-0.630760,-0.620066,4.386156,-0.821077,1.192017,-0.319795,1.111477,1.340957,-0.342260,-0.184437,1.985111,0.821077,1.192017,0.319795,1.111477,1.340957,0.342260,0.184437,1.985111,0.872677,2.104636,0.616179,0.649973,6.311359,2.482993,0.528523,0.960321
546,1303,2,3,-2,1,12,2,1,1,1,33,541.000,5.000,1126226,17340,-826,-3986,-538,-48,45,57501,-33850,21525,7,13062,2600,-46035,364325,165,-311,2485,9443,2.362045,3.393545,-1.512736,1.433210,10.471904,2.369240,1.379934,1.386156,1.367371,0.942866,-0.567692,0.478087,0.146658,1.143191,0.780940,-0.436541,1.367371,0.942866,0.567692,0.478087,0.146658,1.143191,0.780940,0.436541,0.928433,2.108689,0.633751,0.656818,6.085892,2.477261,0.557505,0.766576
546,1303,0,-5,0,0,1,-7,0,-2,1,33,541.000,5.000,1126226,17340,-826,-3986,-538,-48,45,57501,-33850,21525,7,13062,2600,-46035,364325,165,-311,2485,9443,0.362045,-4.606455,0.487264,0.433210,-0.528096,-6.630760,0.379934,-1.613844,-0.272117,-3.035530,0.616088,-0.224494,-4.668418,-3.379500,-0.094226,-1.478181,0.272117,3.035530,0.616088,0.224494,4.668418,3.379500,0.094226,1.478181,0.927981,2.249806,0.607675,0.654924,6.163926,2.535178,0.533967,0.857566
568,1325,0,-1,-1,-2,14,0,0,-5,1,35,563.000,5.000,1126248,17320,-870,-3968,-539,-41,51,59105,-34446,22746,7,13056,2609,-46019,362748,165,-310,2486,9438,0.362045,-0.606455,-0.512736,-1.566790,12.471904,0.369240,0.379934,-4.613844,-0.117047,0.414854,-0.165135,-0.956836,3.583717,1.557309,-0.040530,-1.926229,0.117047,0.414854,0.165135,0.956836,3.583717,1.557309,0.040530,1.926229,0.927897,2.229801,0.609192,0.687216,6.184270,2.568903,0.529498,0.999455
