pc_t_ms,emg_t_ms,emg0,emg1,emg2,emg3,emg4,emg5,emg6,emg7,imu_match,imu_source_idx,imu_pc_t_ms,imu_dt_ms,imu_t_ms,imu_ax_raw,imu_ay_raw,imu_az_raw,imu_gx_raw,imu_gy_raw,imu_gz_raw,imu_mad_roll_mdeg,imu_mad_pitch_mdeg,imu_mad_yaw_mdeg,imu_mad_us,imu_ekf_roll_mdeg,imu_ekf_pitch_mdeg,imu_ekf_yaw_mdeg,imu_traceP_1e6,imu_ekf_us,imu_bx_uradps,imu_by_uradps,imu_bz_uradps
0,0,-19,-111,-3,-45,-111,-111,-71,-47,1,0,180.000,-180.000,383672,17348,-278,-4060,-538,-46,40,161953,-38130,101679,7,13180,886,-28673,462449,165,-702,2127,9473
0,0,-33,-54,-8,-71,64,-67,-20,-102,1,0,180.000,-180.000,383672,17348,-278,-4060,-538,-46,40,161953,-38130,101679,7,13180,886,-28673,462449,165,-702,2127,9473
0,0,6,88,2,15,93,88,25,14,1,0,180.000,-180.000,383672,17348,-278,-4060,-538,-46,40,161953,-38130,101679,7,13180,886,-28673,462449,165,-702,2127,9473
0,0,36,119,7,86,110,116,58,81,1,0,180.000,-180.000,383672,17348,-278,-4060,-538,-46,40,161953,-38130,101679,7,13180,886,-28673,462449,165,-702,2127,9473
0,1,-6,-51,-5,-16,-57,-52,-41,-17,1,0,180.000,-180.000,383672,17348,-278,-4060,-538,-46,40,161953,-38130,101679,7,13180,886,-28673,462449,165,-702,2127,9473
0,1,-23,-45,-3,-50,39,-54,-17,-68,1,0,180.000,-180.000,383672,17348,-278,-4060,-538,-46,40,161953,-38130,101679,7,13180,886,-28673,462449,165,-702,2127,9473
0,5,-2,53,0,-7,68,50,7,-17,1,0,180.000,-180.000,383672,17348,-278,-4060,-538,-46,40,161953,-38130,101679,7,13180,886,-28673,462449,165,-702,2127,9473
0,5,36,116,8,86,103,113,57,80,1,0,180.000,-180.000,383672,17348,-278,-4060,-538,-46,40,161953,-38130,101679,7,13180,886,-28673,462449,165,-702,2127,9473
0,9,-4,-38,-4,-17,-48,-36,-31,-5,1,0,180.000,-180.000,383672,17348,-278,-4060,-538,-46,40,161953,-38130,101679,7,13180,886,-28673,462449,165,-702,2127,9473
0,9,-21,-40,-5,-47,30,-49,-18,-62,1,0,180.000,-180.000,383672,17348,-278,-4060,-538,-46,40,161953,-38130,101679,7,13180,886,-28673,462449,165,-702,2127,9473
0,11,-4,55,-1,-6,73,52,13,-15,1,0,180.000,-180.000,383672,17348,-278,-4060,-538,-46,40,161953,-38130,101679,7,13180,886,-28673,462449,165,-702,2127,9473
0,11,32,99,8,72,79,98,45,74,1,0,180.000,-180.000,383672,17348,-278,-4060,-538,-46,40,161953,-38130,101679,7,13180,886,-28673,462449,165,-702,2127,9473
0,26,-5,-33,0,-17,-41,-33,-34,-12,1,0,180.000,-180.000,383672,17348,-278,-4060,-538,-46,40,161953,-38130,101679,7,13180,886,-28673,462449,165,-702,2127,9473
0,26,-22,-18,-5,-42,37,-35,-18,-66,1,0,180.000,-180.000,383672,17348,-278,-4060,-538,-46,40,161953,-38130,101679,7,13180,886,-28673,462449,165,-702,2127,9473
0,35,5,59,-1,6,73,55,17,5,1,0,180.000,-180.000,383672,17348,-278,-4060,-538,-46,40,161953,-38130,101679,7,13180,886,-28673,462449,165,-702,2127,9473
0,35,26,71,7,57,59,69,32,58,1,0,180.000,-180.000,383672,17348,-278,-4060,-538,-46,40,161953,-38130,101679,7,13180,886,-28673,462449,165,-702,2127,9473
0,49,-10,-28,-5,-21,-28,-29,-30,-27,1,0,180.000,-180.000,383672,17348,-278,-4060,-538,-46,40,161953,-38130,101679,7,13180,886,-28673,462449,165,-702,2127,9473
0,49,-11,8,-3,-24,53,-1,-3,-39,1,0,180.000,-180.000,383672,17348,-278,-4060,-538,-46,40,161953,-38130,101679,7,13180,886,-28673,462449,165,-702,2127,9473
0,74,5,48,4,10,58,46,12,13,1,0,180.000,-180.000,383672,17348,-278,-4060,-538,-46,40,161953,-38130,101679,7,13180,886,-28673,462449,165,-702,2127,9473
0,74,18,52,-2,36,43,49,17,39,1,0,180.000,-180.000,383672,17348,-278,-4060,-538,-46,40,161953,-38130,101679,7,13180,886,-28673,462449,165,-702,2127,9473
0,77,-8,-11,-2,-21,-9,-13,-23,-29,1,0,180.000,-180.000,383672,17348,-278,-4060,-538,-46,40,161953,-38130,101679,7,13180,886,-28673,462449,165,-702,2127,9473
0,77,-7,23,-4,-13,51,13,-1,-21,1,0,180.000,-180.000,383672,17348,-278,-4060,-538,-46,40,161953,-38130,101679,7,13180,886,-28673,462449,165,-702,2127,9473
0,79,2,37,3,9,47,33,8,10,1,0,180.000,-180.000,383672,17348,-278,-4060,-538,-46,40,161953,-38130,101679,7,13180,886,-28673,462449,165,-702,2127,9473
0,79,8,42,-1,19,30,40,8,21,1,0,180.000,-180.000,383672,17348,-278,-4060,-538,-46,40,161953,-38130,101679,7,13180,886,-28673,462449,165,-702,2127,9473
0,90,-7,3,-2,-15,5,0,-14,-19,1,0,180.000,-180.000,383672,17348,-278,-4060,-538,-46,40,161953,-38130,101679,7,13180,886,-28673,462449,165,-702,2127,9473
0,90,-4,22,0,-3,38,14,-2,-14,1,0,180.000,-180.000,383672,17348,-278,-4060,-538,-46,40,161953,-38130,101679,7,13180,886,-28673,462449,165,-702,2127,9473
0,102,-1,29,-2,5,42,26,1,4,1,0,180.000,-180.000,383672,17348,-278,-4060,-538,-46,40,161953,-38130,101679,7,13180,886,-28673,462449,165,-702,2127,9473
0,102,8,42,0,18,23,38,7,20,1,0,180.000,-180.000,383672,17348,-278,-4060,-538,-46,40,161953,-38130,101679,7,13180,886,-28673,462449,165,-702,2127,9473
0,143,5,110,2,10,111,110,34,-1,1,0,180.000,-180.000,383672,17348,-278,-4060,-538,-46,40,161953,-38130,101679,7,13180,886,-28673,462449,165,-702,2127,9473
0,143,42,121,12,95,124,120,69,105,1,0,180.000,-180.000,383672,17348,-278,-4060,-538,-46,40,161953,-38130,101679,7,13180,886,-28673,462449,165,-702,2127,9473
0,147,-1,-82,-3,-4,-82,-82,-42,16,1,0,180.000,-180.000,383672,17348,-278,-4060,-538,-46,40,161953,-38130,101679,7,13180,886,-28673,462449,165,-702,2127,9473
0,147,-36,-82,-7,-67,30,-87,-32,-80,1,0,180.000,-180.000,383672,17348,-278,-4060,-538,-46,40,161953,-38130,101679,7,13180,886,-28673,462449,165,-702,2127,9473
0,148,-1,67,-2,2,69,65,15,-17,1,0,180.000,-180.000,383672,17348,-278,-4060,-538,-46,40,161953,-38130,101679,7,13180,886,-28673,462449,165,-702,2127,9473
0,148,25,101,4,57,122,97,47,57,1,0,180.000,-180.000,383672,17348,-278,-4060,-538,-46,40,161953,-38130,101679,7,13180,886,-28673,462449,165,-702,2127,9473
0,149,8,-34,10,25,-38,-34,-17,34,1,0,180.000,-180.000,383672,17348,-278,-4060,-538,-46,40,161953,-38130,101679,7,13180,886,-28673,462449,165,-702,2127,9473
0,149,-29,-64,-11,-62,19,-76,-26,-69,1,0,180.000,-180.000,383672,17348,-278,-4060,-538,-46,40,161953,-38130,101679,7,13180,886,-28673,462449,165,-702,2127,9473
0,154,-7,40,-2,-10,58,37,4,-27,1,0,180.000,-180.000,383672,17348,-278,-4060,-538,-46,40,161953,-38130,101679,7,13180,886,-28673,462449,165,-702,2127,9473
0,154,26,101,1,59,116,96,49,56,1,0,180.000,-180.000,383672,17348,-278,-4060,-538,-46,40,161953,-38130,101679,7,13180,886,-28673,462449,165,-702,2127,9473
0,161,7,-30,0,9,-41,-30,-23,28,1,0,180.000,-180.000,383672,17348,-278,-4060,-538,-46,40,161953,-38130,101679,7,13180,886,-28673,462449,165,-702,2127,9473
0,161,-27,-53,-4,-55,12,-61,-28,-64,1,0,180.000,-180.000,383672,17348,-278,-4060,-538,-46,40,161953,-38130,101679,7,13180,886,-28673,462449,165,-702,2127,9473
0,169,-7,51,0,-10,68,47,11,-20,1,0,180.000,-180.000,383672,17348,-278,-4060,-538,-46,40,161953,-38130,101679,7,13180,886,-28673,462449,165,-702,2127,9473
0,169,23,85,3,60,83,82,41,61,1,0,180.000,-180.000,383672,17348,-278,-4060,-538,-46,40,161953,-38130,101679,7,13180,886,-28673,462449,165,-702,2127,9473
0,185,1,-27,-2,-2,-30,-27,-22,7,1,0,180.000,-180.000,383672,17348,-278,-4060,-538,-46,40,161953,-38130,101679,7,13180,886,-28673,462449,165,-702,2127,9473
0,185,-20,-25,-3,-47,42,-35,-18,-57,1,0,180.000,-180.000,383672,17348,-278,-4060,-538,-46,40,161953,-38130,101679,7,13180,886,-28673,462449,165,-702,2127,9473
0,192,3,53,0,2,67,50,14,3,1,0,180.000,-180.000,383672,17348,-278,-4060,-538,-46,40,161953,-38130,101679,7,13180,886,-28673,462449,165,-702,2127,9473
0,192,18,61,2,39,62,59,28,42,1,0,180.000,-180.000,383672,17348,-278,-4060,-538,-46,40,161953,-38130,101679,7,13180,886,-28673,462449,165,-702,2127,9473
0,214,-5,-21,-2,-10,-18,-23,-23,-9,1,0,180.000,-180.000,383672,17348,-278,-4060,-538,-46,40,161953,-38130,101679,7,13180,886,-28673,462449,165,-702,2127,9473
0,214,-13,-2,-2,-23,56,-5,-5,-37,1,0,180.000,-180.000,383672,17348,-278,-4060,-538,-46,40,161953,-38130,101679,7,13180,886,-28673,462449,165,-702,2127,9473
0,216,3,40,-1,7,48,38,7,7,1,0,180.000,-180.000,383672,17348,-278,-4060,-538,-46,40,161953,-38130,101679,7,13180,886,-28673,462449,165,-702,2127,9473
0,216,12,45,4,20,46,43,15,26,1,0,180.000,-180.000,383672,17348,-278,-4060,-538,-46,40,161953,-38130,101679,7,13180,886,-28673,462449,165,-702,2127,9473
0,229,-5,-3,-5,-22,2,-6,-15,-14,1,0,180.000,-180.000,383672,17348,-278,-4060,-538,-46,40,161953,-38130,101679,7,13180,886,-28673,462449,165,-702,2127,9473
0,229,-5,14,-1,-9,50,9,1,-19,1,0,180.000,-180.000,383672,17348,-278,-4060,-538,-46,40,161953,-38130,101679,7,13180,886,-28673,462449,165,-702,2127,9473
0,230,0,31,4,9,41,29,3,3,1,0,180.000,-180.000,383672,17348,-278,-4060,-538,-46,40,161953,-38130,101679,7,13180,886,-28673,462449,165,-702,2127,9473
0,230,7,41,-2,18,50,39,11,15,1,0,180.000,-180.000,383672,17348,-278,-4060,-538,-46,40,161953,-38130,101679,7,13180,886,-28673,462449,165,-702,2127,9473
0,252,-1,9,0,-4,11,6,-10,-8,1,0,180.000,-180.000,383672,17348,-278,-4060,-538,-46,40,161953,-38130,101679,7,13180,886,-28673,462449,165,-702,2127,9473
0,252,-4,16,0,-8,46,11,-2,-16,1,0,180.000,-180.000,383672,17348,-278,-4060,-538,-46,40,161953,-38130,101679,7,13180,886,-28673,462449,165,-702,2127,9473
0,252,4,25,2,-4,40,23,6,1,1,0,180.000,-180.000,383672,17348,-278,-4060,-538,-46,40,161953,-38130,101679,7,13180,886,-28673,462449,165,-702,2127,9473
0,252,8,43,2,23,46,38,13,15,1,0,180.000,-180.000,383672,17348,-278,-4060,-538,-46,40,161953,-38130,101679,7,13180,886,-28673,462449,165,-702,2127,9473
0,275,-4,9,-2,-4,10,7,-15,-8,1,0,180.000,-180.000,383672,17348,-278,-4060,-538,-46,40,161953,-38130,101679,7,13180,886,-28673,462449,165,-702,2127,9473
0,275,-5,16,0,-8,36,9,-1,-15,1,0,180.000,-180.000,383672,17348,-278,-4060,-538,-46,40,161953,-38130,101679,7,13180,886,-28673,462449,165,-702,2127,9473
0,276,0,28,0,7,40,25,1,3,1,0,180.000,-180.000,383672,17348,-278,-4060,-538,-46,40,161953,-38130,101679,7,13180,886,-28673,462449,165,-702,2127,9473
0,276,7,39,2,19,30,36,11,16,1,0,180.000,-180.000,383672,17348,-278,-4060,-538,-46,40,161953,-38130,101679,7,13180,886,-28673,462449,165,-702,2127,9473
0,289,-5,9,-2,-9,13,7,-12,-16,1,0,180.000,-180.000,383672,17348,-278,-4060,-538,-46,40,161953,-38130,101679,7,13180,886,-28673,462449,165,-702,2127,9473
0,289,-4,21,-3,-5,48,15,2,-14,1,0,180.000,-180.000,383672,17348,-278,-4060,-538,-46,40,161953,-38130,101679,7,13180,886,-28673,462449,165,-702,2127,9473
0,289,0,29,2,5,40,27,7,9,1,0,180.000,-180.000,383672,17348,-278,-4060,-538,-46,40,161953,-38130,101679,7,13180,886,-28673,462449,165,-702,2127,9473
0,289,4,32,5,13,33,30,5,13,1,0,180.000,-180.000,383672,17348,-278,-4060,-538,-46,40,161953,-38130,101679,7,13180,886,-28673,462449,165,-702,2127,9473
0,313,-7,9,-3,-18,15,8,-11,-18,1,0,180.000,-180.000,383672,17348,-278,-4060,-538,-46,40,161953,-38130,101679,7,13180,886,-28673,462449,165,-702,2127,9473
0,313,-2,25,0,1,48,22,4,-9,1,0,180.000,-180.000,383672,17348,-278,-4060,-538,-46,40,161953,-38130,101679,7,13180,886,-28673,462449,165,-702,2127,9473
0,313,2,25,1,3,38,22,4,9,1,0,180.000,-180.000,383672,17348,-278,-4060,-538,-46,40,161953,-38130,101679,7,13180,886,-28673,462449,165,-702,2127,9473
0,313,6,28,-1,8,26,28,4,9,1,0,180.000,-180.000,383672,17348,-278,-4060,-538,-46,40,161953,-38130,101679,7,13180,886,-28673,462449,165,-702,2127,9473
0,334,-7,14,0,-3,19,11,-11,-18,1,0,180.000,-180.000,383672,17348,-278,-4060,-538,-46,40,161953,-38130,101679,7,13180,886,-28673,462449,165,-702,2127,9473
0,334,1,30,-1,-11,44,24,4,-4,1,0,180.000,-180.000,383672,17348,-278,-4060,-538,-46,40,161953,-38130,101679,7,13180,886,-28673,462449,165,-702,2127,9473
0,335,2,23,3,17,34,22,4,8,1,0,180.000,-180.000,383672,17348,-278,-4060,-538,-46,40,161953,-38130,101679,7,13180,886,-28673,462449,165,-702,2127,9473
0,335,4,25,0,9,23,26,2,6,1,0,180.000,-180.000,383672,17348,-278,-4060,-538,-46,40,161953,-38130,101679,7,13180,886,-28673,462449,165,-702,2127,9473
0,349,-7,17,-3,-17,22,13,-10,-18,1,0,180.000,-180.000,383672,17348,-278,-4060,-538,-46,40,161953,-38130,101679,7,13180,886,-28673,462449,165,-702,2127,9473
0,349,0,31,2,7,40,24,4,-4,1,0,180.000,-180.000,383672,17348,-278,-4060,-538,-46,40,161953,-38130,101679,7,13180,886,-28673,462449,165,-702,2127,9473
0,351,1,21,0,2,34,19,2,9,1,0,180.000,-180.000,383672,17348,-278,-4060,-538,-46,40,161953,-38130,101679,7,13180,886,-28673,462449,165,-702,2127,9473
0,351,0,26,-4,4,21,24,0,6,1,0,180.000,-180.000,383672,17348,-278,-4060,-538,-46,40,161953,-38130,101679,7,13180,886,-28673,462449,165,-702,2127,9473
0,371,-5,17,-1,-9,22,13,-10,-18,1,0,180.000,-180.000,383672,17348,-278,-4060,-538,-46,40,161953,-38130,101679,7,13180,886,-28673,462449,165,-702,2127,9473
0,371,0,31,0,8,28,23,1,-3,1,0,180.000,-180.000,383672,17348,-278,-4060,-538,-46,40,161953,-38130,101679,7,13180,886,-28673,462449,165,-702,2127,9473
0,379,3,22,-3,-3,32,20,1,8,1,0,180.000,-180.000,383672,17348,-278,-4060,-538,-46,40,161953,-38130,101679,7,13180,886,-28673,462449,165,-702,2127,9473
0,379,2,24,1,8,24,22,-3,6,1,0,180.000,-180.000,383672,17348,-278,-4060,-538,-46,40,161953,-38130,101679,7,13180,886,-28673,462449,165,-702,2127,9473
0,395,-4,17,-4,-11,22,14,-9,-20,1,0,180.000,-180.000,383672,17348,-278,-4060,-538,-46,40,161953,-38130,101679,7,13180,886,-28673,462449,165,-702,2127,9473
0,395,2,32,-1,5,40,27,4,-4,1,0,180.000,-180.000,383672,17348,-278,-4060,-538,-46,40,161953,-38130,101679,7,13180,886,-28673,462449,165,-702,2127,9473
0,395,3,22,1,8,35,18,3,6,1,0,180.000,-180.000,383672,17348,-278,-4060,-538,-46,40,161953,-38130,101679,7,13180,886,-28673,462449,165,-702,2127,9473
0,395,1,23,-2,8,5,21,-2,6,1,0,180.000,-180.000,383672,17348,-278,-4060,-538,-46,40,161953,-38130,101679,7,13180,886,-28673,462449,165,-702,2127,9473
0,409,-9,16,1,-12,20,14,-7,-18,1,0,180.000,-180.000,383672,17348,-278,-4060,-538,-46,40,161953,-38130,101679,7,13180,886,-28673,462449,165,-702,2127,9473
0,409,3,39,2,2,44,29,6,-3,1,0,180.000,-180.000,383672,17348,-278,-4060,-538,-46,40,161953,-38130,101679,7,13180,886,-28673,462449,165,-702,2127,9473
0,410,6,23,-3,-1,33,19,1,13,1,0,180.000,-180.000,383672,17348,-278,-4060,-538,-46,40,161953,-38130,101679,7,13180,886,-28673,462449,165,-702,2127,9473
0,410,3,22,1,4,19,20,-6,4,1,0,180.000,-180.000,383672,17348,-278,-4060,-538,-46,40,161953,-38130,101679,7,13180,886,-28673,462449,165,-702,2127,9473
0,432,-7,17,-2,-13,20,15,-11,-20,1,0,180.000,-180.000,383672,17348,-278,-4060,-538,-46,40,161953,-38130,101679,7,13180,886,-28673,462449,165,-702,2127,9473
0,432,1,36,1,7,38,33,6,-1,1,0,180.000,-180.000,383672,17348,-278,-4060,-538,-46,40,161953,-38130,101679,7,13180,886,-28673,462449,165,-702,2127,9473
0,432,3,22,3,8,35,19,0,7,1,0,180.000,-180.000,383672,17348,-278,-4060,-538,-46,40,161953,-38130,101679,7,13180,886,-28673,462449,165,-702,2127,9473
0,432,3,22,-1,6,14,19,0,4,1,0,180.000,-180.000,383672,17348,-278,-4060,-538,-46,40,161953,-38130,101679,7,13180,886,-28673,462449,165,-702,2127,9473
0,454,-4,18,-2,-25,23,14,-5,-18,1,0,180.000,-180.000,383672,17348,-278,-4060,-538,-46,40,161953,-38130,101679,7,13180,886,-28673,462449,165,-702,2127,9473
0,454,2,42,2,7,46,33,1,1,1,0,180.000,-180.000,383672,17348,-278,-4060,-538,-46,40,161953,-38130,101679,7,13180,886,-28673,462449,165,-702,2127,9473
0,462,2,23,1,6,35,19,3,9,1,0,180.000,-180.000,383672,17348,-278,-4060,-538,-46,40,161953,-38130,101679,7,13180,886,-28673,462449,165,-702,2127,9473
0,462,-1,22,2,8,11,19,-2,4,1,0,180.000,-180.000,383672,17348,-278,-4060,-538,-46,40,161953,-38130,101679,7,13180,886,-28673,462449,165,-702,2127,9473
0,469,-4,18,-4,-8,22,16,-7,-19,1,0,180.000,-180.000,383672,17348,-278,-4060,-538,-46,40,161953,-38130,101679,7,13180,886,-28673,462449,165,-702,2127,9473
0,469,4,40,1,3,39,34,9,1,1,0,180.000,-180.000,383672,17348,-278,-4060,-538,-46,40,161953,-38130,101679,7,13180,886,-28673,462449,165,-702,2127,9473
0,469,-1,23,-1,5,32,19,3,12,1,0,180.000,-180.000,383672,17348,-278,-4060,-538,-46,40,161953,-38130,101679,7,13180,886,-28673,462449,165,-702,2127,9473
0,469,3,21,-1,-3,-5,19,-6,5,1,0,180.000,-180.000,383672,17348,-278,-4060,-538,-46,40,161953,-38130,101679,7,13180,886,-28673,462449,165,-702,2127,9473
0,492,-8,18,0,-14,23,16,-3,-18,1,0,180.000,-180.000,383672,17348,-278,-4060,-538,-46,40,161953,-38130,101679,7,13180,886,-28673,462449,165,-702,2127,9473
0,492,2,39,-1,4,33,34,3,-1,1,0,180.000,-180.000,383672,17348,-278,-4060,-538,-46,40,161953,-38130,101679,7,13180,886,-28673,462449,165,-702,2127,9473
0,493,2,24,1,8,34,20,1,11,1,0,180.000,-180.000,383672,17348,-278,-4060,-538,-46,40,161953,-38130,101679,7,13180,886,-28673,462449,165,-702,2127,9473
0,493,2,16,-2,-3,11,15,-5,4,1,0,180.000,-180.000,383672,17348,-278,-4060,-538,-46,40,161953,-38130,101679,7,13180,886,-28673,462449,165,-702,2127,9473
0,522,-5,18,-3,-18,25,15,-8,-15,1,0,180.000,-180.000,383672,17348,-278,-4060,-538,-46,40,161953,-38130,101679,7,13180,886,-28673,462449,165,-702,2127,9473
0,522,2,39,-1,11,36,35,4,0,1,0,180.000,-180.000,383672,17348,-278,-4060,-538,-46,40,161953,-38130,101679,7,13180,886,-28673,462449,165,-702,2127,9473
0,523,3,23,-2,8,31,19,2,8,1,0,180.000,-180.000,383672,17348,-278,-4060,-538,-46,40,161953,-38130,101679,7,13180,886,-28673,462449,165,-702,2127,9473
0,523,0,16,3,1,-3,15,-3,4,1,0,180.000,-180.000,383672,17348,-278,-4060,-538,-46,40,161953,-38130,101679,7,13180,886,-28673,462449,165,-702,2127,9473
0,529,-7,18,0,-9,24,16,-7,-15,1,0,180.000,-180.000,383672,17348,-278,-4060,-538,-46,40,161953,-38130,101679,7,13180,886,-28673,462449,165,-702,2127,9473
0,529,2,39,2,5,39,37,3,3,1,0,180.000,-180.000,383672,17348,-278,-4060,-538,-46,40,161953,-38130,101679,7,13180,886,-28673,462449,165,-702,2127,9473
0,530,2,24,0,5,33,21,0,9,1,0,180.000,-180.000,383672,17348,-278,-4060,-538,-46,40,161953,-38130,101679,7,13180,886,-28673,462449,165,-702,2127,9473
0,530,1,15,-1,5,10,12,-4,4,1,0,180.000,-180.000,383672,17348,-278,-4060,-538,-46,40,161953,-38130,101679,7,13180,886,-28673,462449,165,-702,2127,9473
0,553,-4,17,-3,-16,24,15,-7,-12,1,0,180.000,-180.000,383672,17348,-278,-4060,-538,-46,40,161953,-38130,101679,7,13180,886,-28673,462449,165,-702,2127,9473
0,553,3,40,-2,7,33,34,2,1,1,0,180.000,-180.000,383672,17348,-278,-4060,-538,-46,40,161953,-38130,101679,7,13180,886,-28673,462449,165,-702,2127,9473
0,553,-1,23,2,11,32,20,2,10,1,0,180.000,-180.000,383672,17348,-278,-4060,-538,-46,40,161953,-38130,101679,7,13180,886,-28673,462449,165,-702,2127,9473
0,553,-1,12,-1,3,-8,11,-9,4,1,0,180.000,-180.000,383672,17348,-278,-4060,-538,-46,40,161953,-38130,101679,7,13180,886,-28673,462449,165,-702,2127,9473
0,574,-5,17,3,-8,25,15,-6,-12,1,0,180.000,-180.000,383672,17348,-278,-4060,-538,-46,40,161953,-38130,101679,7,13180,886,-28673,462449,165,-702,2127,9473
0,574,2,42,-3,2,35,34,4,3,1,0,180.000,-180.000,383672,17348,-278,-4060,-538,-46,40,161953,-38130,101679,7,13180,886,-28673,462449,165,-702,2127,9473
0,575,3,24,1,5,30,21,2,10,1,0,180.000,-180.000,383672,17348,-278,-4060,-538,-46,40,161953,-38130,101679,7,13180,886,-28673,462449,165,-702,2127,9473
0,575,-1,10,-2,-1,15,9,-4,4,1,0,180.000,-180.000,383672,17348,-278,-4060,-538,-46,40,161953,-38130,101679,7,13180,886,-28673,462449,165,-702,2127,9473
0,597,-8,16,-2,-7,25,15,-8,-11,1,0,180.000,-180.000,383672,17348,-278,-4060,-538,-46,40,161953,-38130,101679,7,13180,886,-28673,462449,165,-702,2127,9473
0,597,4,39,-1,2,37,39,2,5,1,0,180.000,-180.000,383672,17348,-278,-4060,-538,-46,40,161953,-38130,101679,7,13180,886,-28673,462449,165,-702,2127,9473
0,598,3,24,-1,2,30,20,1,9,1,0,180.000,-180.000,383672,17348,-278,-4060,-538,-46,40,161953,-38130,101679,7,13180,886,-28673,462449,165,-702,2127,9473
0,598,-2,10,-2,-2,-3,10,-5,5,1,0,180.000,-180.000,383672,17348,-278,-4060,-538,-46,40,161953,-38130,101679,7,13180,886,-28673,462449,165,-702,2127,9473
0,612,-6,17,2,-5,25,14,-4,-10,1,0,180.000,-180.000,383672,17348,-278,-4060,-538,-46,40,161953,-38130,101679,7,13180,886,-28673,462449,165,-702,2127,9473
0,612,2,37,0,7,35,34,3,3,1,0,180.000,-180.000,383672,17348,-278,-4060,-538,-46,40,161953,-38130,101679,7,13180,886,-28673,462449,165,-702,2127,9473
0,613,-1,23,-3,3,29,20,-1,9,1,0,180.000,-180.000,383672,17348,-278,-4060,-538,-46,40,161953,-38130,101679,7,13180,886,-28673,462449,165,-702,2127,9473
0,613,-2,8,1,-6,11,8,-9,4,1,0,180.000,-180.000,383672,17348,-278,-4060,-538,-46,40,161953,-38130,101679,7,13180,886,-28673,462449,165,-702,2127,9473
0,643,-3,17,-2,-7,25,14,-6,-9,1,0,180.000,-180.000,383672,17348,-278,-4060,-538,-46,40,161953,-38130,101679,7,13180,886,-28673,462449,165,-702,2127,9473
0,643,4,38,3,8,29,31,6,5,1,0,180.000,-180.000,383672,17348,-278,-4060,-538,-46,40,161953,-38130,101679,7,13180,886,-28673,462449,165,-702,2127,9473
0,643,3,22,1,7,29,20,4,8,1,0,180.000,-180.000,383672,17348,-278,-4060,-538,-46,40,161953,-38130,101679,7,13180,886,-28673,462449,165,-702,2127,9473
0,643,-1,11,-2,0,1,8,-10,3,1,0,180.000,-180.000,383672,17348,-278,-4060,-538,-46,40,161953,-38130,101679,7,13180,886,-28673,462449,165,-702,2127,9473
0,650,-7,17,-2,-8,26,14,-6,-9,1,0,180.000,-180.000,383672,17348,-278,-4060,-538,-46,40,161953,-38130,101679,7,13180,886,-28673,462449,165,-702,2127,9473
0,650,1,40,2,2,29,33,1,4,1,0,180.000,-180.000,383672,17348,-278,-4060,-538,-46,40,161953,-38130,101679,7,13180,886,-28673,462449,165,-702,2127,9473
0,656,1,23,0,2,29,20,2,10,1,0,180.000,-180.000,383672,17348,-278,-4060,-538,-46,40,161953,-38130,101679,7,13180,886,-28673,462449,165,-702,2127,9473
0,656,-1,11,-3,-8,-2,9,-7,4,1,0,180.000,-180.000,383672,17348,-278,-4060,-538,-46,40,161953,-38130,101679,7,13180,886,-28673,462449,165,-702,2127,9473
0,687,-6,16,0,-7,25,14,-5,-9,1,0,180.000,-180.000,383672,17348,-278,-4060,-538,-46,40,161953,-38130,101679,7,13180,886,-28673,462449,165,-702,2127,9473
0,687,3,37,0,8,28,37,2,2,1,0,180.000,-180.000,383672,17348,-278,-4060,-538,-46,40,161953,-38130,101679,7,13180,886,-28673,462449,165,-702,2127,9473
0,688,3,23,-2,4,29,20,-1,10,1,0,180.000,-180.000,383672,17348,-278,-4060,-538,-46,40,161953,-38130,101679,7,13180,886,-28673,462449,165,-702,2127,9473
0,688,-2,11,3,-2,4,11,-7,4,1,0,180.000,-180.000,383672,17348,-278,-4060,-538,-46,40,161953,-38130,101679,7,13180,886,-28673,462449,165,-702,2127,9473
0,695,-5,16,-3,-6,24,13,-4,-8,1,0,180.000,-180.000,383672,17348,-278,-4060,-538,-46,40,161953,-38130,101679,7,13180,886,-28673,462449,165,-702,2127,9473
0,695,2,37,2,8,31,32,3,3,1,0,180.000,-180.000,383672,17348,-278,-4060,-538,-46,40,161953,-38130,101679,7,13180,886,-28673,462449,165,-702,2127,9473
0,696,1,24,-1,1,31,21,1,7,1,0,180.000,-180.000,383672,17348,-278,-4060,-538,-46,40,161953,-38130,101679,7,13180,886,-28673,462449,165,-702,2127,9473
0,696,-2,12,-2,-3,3,10,-7,4,1,0,180.000,-180.000,383672,17348,-278,-4060,-538,-46,40,161953,-38130,101679,7,13180,886,-28673,462449,165,-702,2127,9473
0,709,-5,17,-2,-9,25,15,-2,-10,1,0,180.000,-180.000,383672,17348,-278,-4060,-538,-46,40,161953,-38130,101679,7,13180,886,-28673,462449,165,-702,2127,9473
0,709,1,36,1,5,34,32,3,3,1,0,180.000,-180.000,383672,17348,-278,-4060,-538,-46,40,161953,-38130,101679,7,13180,886,-28673,462449,165,-702,2127,9473
0,716,3,24,1,3,32,21,1,8,1,0,180.000,-180.000,383672,17348,-278,-4060,-538,-46,40,161953,-38130,101679,7,13180,886,-28673,462449,165,-702,2127,9473
0,716,-2,8,-3,-2,-4,9,-10,4,1,0,180.000,-180.000,383672,17348,-278,-4060,-538,-46,40,161953,-38130,101679,7,13180,886,-28673,462449,165,-702,2127,9473
0,740,-3,17,2,-9,25,15,-4,-8,1,0,180.000,-180.000,383672,17348,-278,-4060,-538,-46,40,161953,-38130,101679,7,13180,886,-28673,462449,165,-702,2127,9473
0,740,0,39,1,5,25,29,2,6,1,0,180.000,-180.000,383672,17348,-278,-4060,-538,-46,40,161953,-38130,101679,7,13180,886,-28673,462449,165,-702,2127,9473
0,740,0,24,-5,3,30,20,2,9,1,0,180.000,-180.000,383672,17348,-278,-4060,-538,-46,40,161953,-38130,101679,7,13180,886,-28673,462449,165,-702,2127,9473
0,740,-2,8,2,1,-19,9,-8,2,1,0,180.000,-180.000,383672,17348,-278,-4060,-538,-46,40,161953,-38130,101679,7,13180,886,-28673,462449,165,-702,2127,9473
0,770,-7,17,3,-10,26,14,-3,-8,1,0,180.000,-180.000,383672,17348,-278,-4060,-538,-46,40,161953,-38130,101679,7,13180,886,-28673,462449,165,-702,2127,9473
0,770,4,36,-1,7,25,34,4,5,1,0,180.000,-180.000,383672,17348,-278,-4060,-538,-46,40,161953,-38130,101679,7,13180,886,-28673,462449,165,-702,2127,9473
0,771,2,25,3,13,30,21,3,9,1,0,180.000,-180.000,383672,17348,-278,-4060,-538,-46,40,161953,-38130,101679,7,13180,886,-28673,462449,165,-702,2127,9473
0,771,-3,2,-4,-15,-16,2,-8,2,1,0,180.000,-180.000,383672,17348,-278,-4060,-538,-46,40,161953,-38130,101679,7,13180,886,-28673,462449,165,-702,2127,9473
0,772,-5,18,-3,-6,25,14,-2,-6,1,0,180.000,-180.000,383672,17348,-278,-4060,-538,-46,40,161953,-38130,101679,7,13180,886,-28673,462449,165,-702,2127,9473
0,772,2,36,-2,4,29,29,4,5,1,0,180.000,-180.000,383672,17348,-278,-4060,-538,-46,40,161953,-38130,101679,7,13180,886,-28673,462449,165,-702,2127,9473
0,777,2,24,2,5,29,21,2,9,1,0,180.000,-180.000,383672,17348,-278,-4060,-538,-46,40,161953,-38130,101679,7,13180,886,-28673,462449,165,-702,2127,9473
0,777,-4,-8,0,-3,-1,-6,-9,1,1,0,180.000,-180.000,383672,17348,-278,-4060,-538,-46,40,161953,-38130,101679,7,13180,886,-28673,462449,165,-702,2127,9473
12,799,-4,17,-6,-8,23,14,-1,-5,1,0,180.000,-168.000,383672,17348,-278,-4060,-538,-46,40,161953,-38130,101679,7,13180,886,-28673,462449,165,-702,2127,9473
12,799,2,34,2,5,29,31,2,7,1,0,180.000,-168.000,383672,17348,-278,-4060,-538,-46,40,161953,-38130,101679,7,13180,886,-28673,462449,165,-702,2127,9473
12,801,3,24,-4,1,28,20,2,13,1,0,180.000,-168.000,383672,17348,-278,-4060,-538,-46,40,161953,-38130,101679,7,13180,886,-28673,462449,165,-702,2127,9473
12,801,-2,-9,2,-1,2,-8,-10,1,1,0,180.000,-168.000,383672,17348,-278,-4060,-538,-46,40,161953,-38130,101679,7,13180,886,-28673,462449,165,-702,2127,9473
27,815,-5,17,-2,-7,25,14,-2,-4,1,0,180.000,-153.000,383672,17348,-278,-4060,-538,-46,40,161953,-38130,101679,7,13180,886,-28673,462449,165,-702,2127,9473
27,815,1,33,-2,10,33,35,1,4,1,0,180.000,-153.000,383672,17348,-278,-4060,-538,-46,40,161953,-38130,101679,7,13180,886,-28673,462449,165,-702,2127,9473
27,815,3,23,3,9,29,20,4,7,1,0,180.000,-153.000,383672,17348,-278,-4060,-538,-46,40,161953,-38130,101679,7,13180,886,-28673,462449,165,-702,2127,9473
27,815,-3,-3,-4,-5,4,-7,-7,1,1,0,180.000,-153.000,383672,17348,-278,-4060,-538,-46,40,161953,-38130,101679,7,13180,886,-28673,462449,165,-702,2127,9473
40,829,-5,17,0,-6,25,13,-2,-4,1,0,180.000,-140.000,383672,17348,-278,-4060,-538,-46,40,161953,-38130,101679,7,13180,886,-28673,462449,165,-702,2127,9473
40,829,3,36,2,5,31,35,3,6,1,0,180.000,-140.000,383672,17348,-278,-4060,-538,-46,40,161953,-38130,101679,7,13180,886,-28673,462449,165,-702,2127,9473
48,836,1,23,-2,5,28,20,2,10,1,0,180.000,-132.000,383672,17348,-278,-4060,-538,-46,40,161953,-38130,101679,7,13180,886,-28673,462449,165,-702,2127,9473
49,836,-6,-7,-2,-9,3,-8,-10,-1,1,0,180.000,-131.000,383672,17348,-278,-4060,-538,-46,40,161953,-38130,101679,7,13180,886,-28673,462449,165,-702,2127,9473
64,852,-4,17,-1,-5,24,14,-1,-2,1,0,180.000,-116.000,383672,17348,-278,-4060,-538,-46,40,161953,-38130,101679,7,13180,886,-28673,462449,165,-702,2127,9473
64,852,0,31,-1,5,30,34,4,5,1,0,180.000,-116.000,383672,17348,-278,-4060,-538,-46,40,161953,-38130,101679,7,13180,886,-28673,462449,165,-702,2127,9473
65,853,2,22,0,11,30,20,2,10,1,0,180.000,-115.000,383672,17348,-278,-4060,-538,-46,40,161953,-38130,101679,7,13180,886,-28673,462449,165,-702,2127,9473
65,853,-3,-11,0,-5,7,-11,-11,0,1,0,180.000,-115.000,383672,17348,-278,-4060,-538,-46,40,161953,-38130,101679,7,13180,886,-28673,462449,165,-702,2127,9473
94,882,-1,17,1,-6,26,14,0,-2,1,0,180.000,-86.000,383672,17348,-278,-4060,-538,-46,40,161953,-38130,101679,7,13180,886,-28673,462449,165,-702,2127,9473
94,882,0,33,1,7,30,34,3,5,1,0,180.000,-86.000,383672,17348,-278,-4060,-538,-46,40,161953,-38130,101679,7,13180,886,-28673,462449,165,-702,2127,9473
95,883,4,22,1,3,30,19,2,6,1,0,180.000,-85.000,383672,17348,-278,-4060,-538,-46,40,161953,-38130,101679,7,13180,886,-28673,462449,165,-702,2127,9473
95,883,-2,-3,-2,-11,4,-7,-10,1,1,0,180.000,-85.000,383672,17348,-278,-4060,-538,-46,40,161953,-38130,101679,7,13180,886,-28673,462449,165,-702,2127,9473
100,888,-5,17,-1,-4,23,15,-1,-3,1,0,180.000,-80.000,383672,17348,-278,-4060,-538,-46,40,161953,-38130,101679,7,13180,886,-28673,462449,165,-702,2127,9473
100,888,2,32,0,5,31,34,0,9,1,0,180.000,-80.000,383672,17348,-278,-4060,-538,-46,40,161953,-38130,101679,7,13180,886,-28673,462449,165,-702,2127,9473
109,896,0,21,0,9,30,20,1,9,1,0,180.000,-71.000,383672,17348,-278,-4060,-538,-46,40,161953,-38130,101679,7,13180,886,-28673,462449,165,-702,2127,9473
109,896,-3,-9,-4,-10,14,-11,-8,-1,1,0,180.000,-71.000,383672,17348,-278,-4060,-538,-46,40,161953,-38130,101679,7,13180,886,-28673,462449,165,-702,2127,9473
124,912,-5,17,0,-5,33,13,2,-2,1,0,180.000,-56.000,383672,17348,-278,-4060,-538,-46,40,161953,-38130,101679,7,13180,886,-28673,462449,165,-702,2127,9473
124,912,3,31,2,4,30,31,1,9,1,0,180.000,-56.000,383672,17348,-278,-4060,-538,-46,40,161953,-38130,101679,7,13180,886,-28673,462449,165,-702,2127,9473
125,912,3,21,0,4,30,19,5,8,1,0,180.000,-55.000,383672,17348,-278,-4060,-538,-46,40,161953,-38130,101679,7,13180,886,-28673,462449,165,-702,2127,9473
125,912,-5,-2,1,-8,7,-7,-9,0,1,0,180.000,-55.000,383672,17348,-278,-4060,-538,-46,40,161953,-38130,101679,7,13180,886,-28673,462449,165,-702,2127,9473
147,935,-1,17,-4,-3,34,15,0,-1,1,0,180.000,-33.000,383672,17348,-278,-4060,-538,-46,40,161953,-38130,101679,7,13180,886,-28673,462449,165,-702,2127,9473
147,935,2,29,1,2,31,25,3,6,1,0,180.000,-33.000,383672,17348,-278,-4060,-538,-46,40,161953,-38130,101679,7,13180,886,-28673,462449,165,-702,2127,9473
147,935,1,21,-1,6,31,19,4,7,1,0,180.000,-33.000,383672,17348,-278,-4060,-538,-46,40,161953,-38130,101679,7,13180,886,-28673,462449,165,-702,2127,9473
147,935,-3,-7,3,-1,5,-9,-9,-2,1,0,180.000,-33.000,383672,17348,-278,-4060,-538,-46,40,161953,-38130,101679,7,13180,886,-28673,462449,165,-702,2127,9473
160,948,-5,17,1,-6,34,14,2,-2,1,0,180.000,-20.000,383672,17348,-278,-4060,-538,-46,40,161953,-38130,101679,7,13180,886,-28673,462449,165,-702,2127,9473
160,948,1,31,-4,6,29,32,4,8,1,0,180.000,-20.000,383672,17348,-278,-4060,-538,-46,40,161953,-38130,101679,7,13180,886,-28673,462449,165,-702,2127,9473
168,956,1,21,1,13,33,18,2,8,1,0,180.000,-12.000,383672,17348,-278,-4060,-538,-46,40,161953,-38130,101679,7,13180,886,-28673,462449,165,-702,2127,9473
168,956,-3,-4,-3,-8,14,-2,-9,-1,1,0,180.000,-12.000,383672,17348,-278,-4060,-538,-46,40,161953,-38130,101679,7,13180,886,-28673,462449,165,-702,2127,9473
184,972,-3,17,-2,-2,39,14,2,-2,1,0,180.000,4.000,383672,17348,-278,-4060,-538,-46,40,161953,-38130,101679,7,13180,886,-28673,462449,165,-702,2127,9473
184,972,3,28,2,3,31,29,3,8,1,0,180.000,4.000,383672,17348,-278,-4060,-538,-46,40,161953,-38130,101679,7,13180,886,-28673,462449,165,-702,2127,9473
185,973,0,21,-1,2,32,19,3,10,1,0,180.000,5.000,383672,17348,-278,-4060,-538,-46,40,161953,-38130,101679,7,13180,886,-28673,462449,165,-702,2127,9473
185,973,-5,-5,1,-3,9,-4,-11,-1,1,0,180.000,5.000,383672,17348,-278,-4060,-538,-46,40,161953,-38130,101679,7,13180,886,-28673,462449,165,-702,2127,9473
207,994,-2,18,-1,-6,38,15,3,-2,1,3,212.000,-5.000,383705,17338,-298,-4118,-545,-42,44,163663,-36290,102380,7,13175,878,-28758,420214,165,-700,2127,9482
207,994,1,32,-2,8,31,30,3,8,1,3,212.000,-5.000,383705,17338,-298,-4118,-545,-42,44,163663,-36290,102380,7,13175,878,-28758,420214,165,-700,2127,9482
207,995,3,22,-1,4,34,19,5,11,1,3,212.000,-5.000,383705,17338,-298,-4118,-545,-42,44,163663,-36290,102380,7,13175,878,-28758,420214,165,-700,2127,9482
208,995,-3,-6,0,-7,10,-9,-13,-5,1,3,212.000,-4.000,383705,17338,-298,-4118,-545,-42,44,163663,-36290,102380,7,13175,878,-28758,420214,165,-700,2127,9482
229,1017,-6,17,-5,-3,39,15,1,-2,1,5,234.000,-5.000,383728,17344,-244,-4040,-545,-43,45,164766,-35053,102802,7,13169,853,-28945,413245,166,-699,2124,9504
229,1017,3,32,2,13,29,23,3,5,1,5,234.000,-5.000,383728,17344,-244,-4040,-545,-43,45,164766,-35053,102802,7,13169,853,-28945,413245,166,-699,2124,9504
231,1019,4,23,0,2,32,18,6,7,1,5,234.000,-3.000,383728,17344,-244,-4040,-545,-43,45,164766,-35053,102802,7,13169,853,-28945,413245,166,-699,2124,9504
231,1019,-4,-9,0,-6,10,-9,-9,-5,1,5,234.000,-3.000,383728,17344,-244,-4040,-545,-43,45,164766,-35053,102802,7,13169,853,-28945,413245,166,-699,2124,9504
243,1031,-2,17,-1,-5,36,15,5,-2,1,6,245.000,-2.000,383739,17330,-266,-4142,-544,-45,46,165308,-34433,103000,7,13203,853,-28890,410500,166,-710,2124,9496
243,1031,3,31,0,6,30,29,2,8,1,6,245.000,-2.000,383739,17330,-266,-4142,-544,-45,46,165308,-34433,103000,7,13203,853,-28890,410500,166,-710,2124,9496
259,1048,2,23,-2,9,34,19,3,8,1,7,256.000,3.000,383750,17294,-290,-4066,-547,-54,43,165845,-33810,103190,7,13208,863,-28825,408458,167,-711,2125,9487
259,1048,-2,-12,2,-13,13,-11,-9,-5,1,7,256.000,3.000,383750,17294,-290,-4066,-547,-54,43,165845,-33810,103190,7,13208,863,-28825,408458,167,-711,2125,9487
266,1055,-3,17,-1,1,33,15,2,-2,1,8,267.000,-1.000,383761,17352,-290,-4148,-542,-49,42,166375,-33185,103371,7,13232,869,-28748,407217,169,-718,2126,9477
267,1055,0,28,0,3,28,27,3,8,1,8,267.000,0.000,383761,17352,-290,-4148,-542,-49,42,166375,-33185,103371,7,13232,869,-28748,407217,169,-718,2126,9477
268,1057,4,22,-1,7,34,19,4,11,1,8,267.000,1.000,383761,17352,-290,-4148,-542,-49,42,166375,-33185,103371,7,13232,869,-28748,407217,169,-718,2126,9477
268,1057,-5,-13,-2,-8,15,-15,-11,-9,1,8,267.000,1.000,383761,17352,-290,-4148,-542,-49,42,166375,-33185,103371,7,13232,869,-28748,407217,169,-718,2126,9477
288,1076,-1,17,1,0,30,14,2,-1,1,10,289.000,-1.000,383783,17370,-262,-4088,-540,-37,49,167416,-31932,103709,7,13231,866,-28790,405545,165,-718,2126,9481
288,1076,1,30,-1,-2,29,30,2,9,1,10,289.000,-1.000,383783,17370,-262,-4088,-540,-37,49,167416,-31932,103709,7,13231,866,-28790,405545,165,-718,2126,9481
297,1084,2,23,0,13,31,20,6,9,1,11,300.000,-3.000,383794,17392,-260,-4078,-540,-44,44,167929,-31303,103866,7,13229,863,-28818,404895,165,-717,2126,9484
297,1084,-7,-13,0,-13,20,-14,-7,-9,1,11,300.000,-3.000,383794,17392,-260,-4078,-540,-44,44,167929,-31303,103866,7,13229,863,-28818,404895,165,-717,2126,9484
303,1091,-1,16,-3,2,33,13,5,-1,1,11,300.000,3.000,383794,17392,-260,-4078,-540,-44,44,167929,-31303,103866,7,13229,863,-28818,404895,165,-717,2126,9484
303,1091,1,27,4,-3,28,30,1,6,1,11,300.000,3.000,383794,17392,-260,-4078,-540,-44,44,167929,-31303,103866,7,13229,863,-28818,404895,165,-717,2126,9484
312,1100,3,22,-2,7,31,19,4,9,1,12,311.000,1.000,383805,17372,-226,-4062,-537,-39,47,168435,-30672,104016,7,13224,853,-28904,404308,165,-716,2125,9493
312,1100,-5,-11,-3,-9,20,-19,-8,-10,1,12,311.000,1.000,383805,17372,-226,-4062,-537,-39,47,168435,-30672,104016,7,13224,853,-28904,404308,165,-716,2125,9493
334,1122,1,16,1,-1,33,13,1,-2,1,14,333.000,1.000,383827,17352,-256,-4058,-536,-43,49,169435,-29408,104294,7,13228,849,-28941,403004,165,-717,2124,9497
334,1122,3,29,0,4,27,29,2,9,1,14,333.000,1.000,383827,17352,-256,-4058,-536,-43,49,169435,-29408,104294,7,13228,849,-28941,403004,165,-717,2124,9497
336,1123,4,23,-1,5,32,19,2,9,1,14,333.000,3.000,383827,17352,-256,-4058,-536,-43,49,169435,-29408,104294,7,13228,849,-28941,403004,165,-717,2124,9497
336,1123,-4,-6,1,-12,22,-15,-10,-12,1,14,333.000,3.000,383827,17352,-256,-4058,-536,-43,49,169435,-29408,104294,7,13228,849,-28941,403004,165,-717,2124,9497
349,1137,0,16,-6,-1,30,14,5,-1,1,15,345.000,4.000,383838,17358,-250,-4058,-537,-41,51,169927,-28774,104423,7,13224,846,-28975,402423,165,-716,2124,9500
349,1137,3,25,0,9,27,29,5,8,1,15,345.000,4.000,383838,17358,-250,-4058,-537,-41,51,169927,-28774,104423,7,13224,846,-28975,402423,165,-716,2124,9500
351,1139,1,22,1,11,33,18,4,7,1,16,356.000,-5.000,383849,17364,-258,-4072,-535,-40,44,170416,-28139,104545,7,13223,845,-28990,401853,165,-715,2124,9501
351,1139,-4,-4,-3,-1,22,-13,-10,-10,1,16,356.000,-5.000,383849,17364,-258,-4072,-535,-40,44,170416,-28139,104545,7,13223,845,-28990,401853,165,-715,2124,9501
372,1160,-2,16,5,0,29,13,6,-2,1,17,367.000,5.000,383860,17374,-274,-4124,-531,-40,52,170899,-27503,104659,7,13230,848,-28971,401338,165,-717,2124,9498
372,1160,0,25,-6,4,26,29,2,7,1,17,367.000,5.000,383860,17374,-274,-4124,-531,-40,52,170899,-27503,104659,7,13230,848,-28971,401338,165,-717,2124,9498
373,1161,3,22,3,9,32,19,3,6,1,18,378.000,-5.000,383871,17322,-258,-4132,-545,-38,54,171379,-26866,104768,7,13241,847,-28965,400921,165,-721,2124,9497
373,1161,-4,-4,-3,-7,23,-9,-11,-12,1,18,378.000,-5.000,383871,17322,-258,-4132,-545,-38,54,171379,-26866,104768,7,13241,847,-28965,400921,165,-721,2124,9497
385,1173,-1,17,0,2,36,13,5,-2,1,19,389.000,-4.000,383882,17356,-268,-4028,-537,-40,47,171856,-26228,104870,7,13232,848,-28983,400564,165,-718,2124,9498
385,1173,2,26,-1,-1,27,25,3,9,1,19,389.000,-4.000,383882,17356,-268,-4028,-537,-40,47,171856,-26228,104870,7,13232,848,-28983,400564,165,-718,2124,9498
394,1182,3,22,-3,8,30,20,5,6,1,19,389.000,5.000,383882,17356,-268,-4028,-537,-40,47,171856,-26228,104870,7,13232,848,-28983,400564,165,-718,2124,9498
394,1182,-3,-3,-2,-10,23,-8,-11,-12,1,19,389.000,5.000,383882,17356,-268,-4028,-537,-40,47,171856,-26228,104870,7,13232,848,-28983,400564,165,-718,2124,9498
417,1205,0,21,1,1,51,15,8,-1,1,22,422.000,-5.000,383915,17386,-292,-4090,-540,-43,42,173264,-24306,105140,7,13251,852,-28939,399793,165,-723,2124,9490
417,1205,4,24,0,10,27,26,3,8,1,22,422.000,-5.000,383915,17386,-292,-4090,-540,-43,42,173264,-24306,105140,7,13251,852,-28939,399793,165,-723,2124,9490
418,1206,3,23,1,8,32,19,5,6,1,22,422.000,-4.000,383915,17386,-292,-4090,-540,-43,42,173264,-24306,105140,7,13251,852,-28939,399793,165,-723,2124,9490
418,1206,-5,1,-2,-13,26,-4,-8,-10,1,22,422.000,-4.000,383915,17386,-292,-4090,-540,-43,42,173264,-24306,105140,7,13251,852,-28939,399793,165,-723,2124,9490
432,1220,-1,22,-1,0,49,15,7,-2,1,23,433.000,-1.000,383927,17332,-238,-4106,-538,-44,47,173727,-23664,105217,7,13255,848,-28967,399637,165,-725,2124,9493
432,1220,3,24,-1,2,28,25,-1,10,1,23,433.000,-1.000,383927,17332,-238,-4106,-538,-44,47,173727,-23664,105217,7,13255,848,-28967,399637,165,-725,2124,9493
433,1221,2,23,-2,10,32,19,5,6,1,23,433.000,0.000,383927,17332,-238,-4106,-538,-44,47,173727,-23664,105217,7,13255,848,-28967,399637,165,-725,2124,9493
433,1221,-7,-2,0,-9,23,-4,-12,-13,1,23,433.000,0.000,383927,17332,-238,-4106,-538,-44,47,173727,-23664,105217,7,13255,848,-28967,399637,165,-725,2124,9493
445,1233,1,21,-2,0,52,18,7,-2,1,24,444.000,1.000,383938,17364,-240,-4060,-533,-47,44,174187,-23021,105288,7,13251,845,-29003,399469,166,-723,2124,9497
445,1233,2,27,0,5,27,24,5,7,1,24,444.000,1.000,383938,17364,-240,-4060,-533,-47,44,174187,-23021,105288,7,13251,845,-29003,399469,166,-723,2124,9497
454,1242,3,23,4,11,32,20,3,5,1,25,455.000,-1.000,383949,17382,-246,-4106,-530,-45,48,174644,-22377,105354,7,13254,843,-29020,399288,166,-724,2124,9498
454,1242,-6,2,-1,-18,26,0,-11,-14,1,25,455.000,-1.000,383949,17382,-246,-4106,-530,-45,48,174644,-22377,105354,7,13254,843,-29020,399288,166,-724,2124,9498
468,1257,0,23,-1,2,61,19,6,-2,1,26,466.000,2.000,383960,17292,-258,-4128,-541,-47,51,175099,-21733,105414,7,13262,843,-29016,399084,167,-727,2123,9497
468,1257,3,26,0,6,30,23,2,10,1,26,466.000,2.000,383960,17292,-258,-4128,-541,-47,51,175099,-21733,105414,7,13262,843,-29016,399084,167,-727,2123,9497
477,1265,4,25,0,8,33,20,7,6,1,27,477.000,0.000,383971,17332,-282,-4074,-538,-43,49,175551,-21088,105468,7,13261,845,-29007,398914,165,-726,2124,9495
477,1265,-7,4,-2,-11,25,0,-10,-14,1,27,477.000,0.000,383971,17332,-282,-4074,-538,-43,49,175551,-21088,105468,7,13261,845,-29007,398914,165,-726,2124,9495
492,1280,0,21,0,-1,52,17,7,-2,1,28,488.000,4.000,383982,17366,-246,-4050,-541,-35,40,175999,-20442,105517,7,13256,843,-29037,398793,165,-724,2123,9498
492,1280,3,26,0,11,29,23,2,9,1,28,488.000,4.000,383982,17366,-246,-4050,-541,-35,40,175999,-20442,105517,7,13256,843,-29037,398793,165,-724,2123,9498
493,1281,2,26,2,11,31,22,6,5,1,28,488.000,5.000,383982,17366,-246,-4050,-541,-35,40,175999,-20442,105517,7,13256,843,-29037,398793,165,-724,2123,9498
493,1281,-6,2,-2,-14,23,0,-9,-16,1,28,488.000,5.000,383982,17366,-246,-4050,-541,-35,40,175999,-20442,105517,7,13256,843,-29037,398793,165,-724,2123,9498
506,1293,1,21,-2,-2,51,18,8,-2,1,30,510.000,-4.000,384004,17340,-256,-4084,-542,-45,47,176892,-19149,105599,7,13252,842,-29061,398538,165,-723,2123,9499
506,1293,0,25,0,3,26,25,0,6,1,30,510.000,-4.000,384004,17340,-256,-4084,-542,-45,47,176892,-19149,105599,7,13252,842,-29061,398538,165,-723,2123,9499
514,1302,3,26,2,15,30,22,3,6,1,30,510.000,4.000,384004,17340,-256,-4084,-542,-45,47,176892,-19149,105599,7,13252,842,-29061,398538,165,-723,2123,9499
514,1302,-5,3,-4,-15,28,0,-10,-18,1,30,510.000,4.000,384004,17340,-256,-4084,-542,-45,47,176892,-19149,105599,7,13252,842,-29061,398538,165,-723,2123,9499
530,1318,-2,21,2,9,50,17,8,-2,1,32,532.000,-2.000,384026,17316,-290,-4096,-537,-37,44,177776,-17854,105659,7,13251,844,-29066,398302,165,-722,2124,9498
530,1318,3,24,-1,4,29,23,3,9,1,32,532.000,-2.000,384026,17316,-290,-4096,-537,-37,44,177776,-17854,105659,7,13251,844,-29066,398302,165,-722,2124,9498
535,1324,4,26,0,5,29,23,6,7,1,32,532.000,3.000,384026,17316,-290,-4096,-537,-37,44,177776,-17854,105659,7,13251,844,-29066,398302,165,-722,2124,9498
535,1324,-5,2,-4,-10,27,1,-12,-19,1,32,532.000,3.000,384026,17316,-290,-4096,-537,-37,44,177776,-17854,105659,7,13251,844,-29066,398302,165,-722,2124,9498
552,1339,0,21,-2,3,46,18,11,-2,1,34,554.000,-2.000,384048,17334,-230,-4110,-538,-38,46,178653,-16557,105698,7,13251,839,-29100,398157,165,-722,2123,9501
552,1339,2,22,0,7,25,23,7,7,1,34,554.000,-2.000,384048,17334,-230,-4110,-538,-38,46,178653,-16557,105698,7,13251,839,-29100,398157,165,-722,2123,9501
553,1341,3,25,5,12,29,22,4,6,1,34,554.000,-1.000,384048,17334,-230,-4110,-538,-38,46,178653,-16557,105698,7,13251,839,-29100,398157,165,-722,2123,9501
553,1341,-6,7,-1,-16,26,1,-9,-18,1,34,554.000,-1.000,384048,17334,-230,-4110,-538,-38,46,178653,-16557,105698,7,13251,839,-29100,398157,165,-722,2123,9501
566,1353,5,20,-1,5,48,17,6,-2,1,35,565.000,1.000,384059,17374,-268,-4136,-533,-39,41,179089,-15907,105710,7,13256,840,-29094,398075,165,-724,2123,9500
566,1353,2,22,1,15,30,23,1,11,1,35,565.000,1.000,384059,17374,-268,-4136,-533,-39,41,179089,-15907,105710,7,13256,840,-29094,398075,165,-724,2123,9500
574,1362,4,25,-4,13,27,22,7,6,1,36,577.000,-3.000,384070,17368,-216,-4148,-540,-39,45,179524,-15258,105716,7,13262,834,-29115,398014,165,-726,2122,9502
574,1362,-6,9,0,-15,29,2,-12,-21,1,36,577.000,-3.000,384070,17368,-216,-4148,-540,-39,45,179524,-15258,105716,7,13262,834,-29115,398014,165,-726,2122,9502
597,1385,-2,23,1,3,45,19,6,-2,1,38,599.000,-2.000,384092,17382,-270,-4098,-542,-43,40,-179609,-13958,105715,7,13263,838,-29101,397890,165,-726,2123,9498
597,1385,3,21,3,9,25,23,2,13,1,38,599.000,-2.000,384092,17382,-270,-4098,-542,-43,40,-179609,-13958,105715,7,13263,838,-29101,397890,165,-726,2123,9498
598,1386,5,25,-1,8,30,23,5,5,1,38,599.000,-1.000,384092,17382,-270,-4098,-542,-43,40,-179609,-13958,105715,7,13263,838,-29101,397890,165,-726,2123,9498
598,1386,-8,11,-2,-9,26,2,-12,-21,1,38,599.000,-1.000,384092,17382,-270,-4098,-542,-43,40,-179609,-13958,105715,7,13263,838,-29101,397890,165,-726,2123,9498
618,1406,0,21,3,4,46,17,9,-2,1,40,621.000,-3.000,384115,17362,-248,-4130,-540,-40,44,-178740,-12647,105693,7,13271,838,-29103,397846,166,-728,2123,9497
618,1406,3,21,-1,-3,29,21,5,10,1,40,621.000,-3.000,384115,17362,-248,-4130,-540,-40,44,-178740,-12647,105693,7,13271,838,-29103,397846,166,-728,2123,9497
627,1415,2,26,1,6,28,23,5,5,1,41,632.000,-5.000,384126,17332,-272,-4090,-534,-45,43,-178307,-11991,105674,7,13272,839,-29102,397828,166,-728,2123,9496
627,1415,-5,13,-4,-15,27,5,-8,-21,1,41,632.000,-5.000,384126,17332,-272,-4090,-534,-45,43,-178307,-11991,105674,7,13272,839,-29102,397828,166,-728,2123,9496
628,1416,3,19,-2,5,45,16,7,-2,1,41,632.000,-4.000,384126,17332,-272,-4090,-534,-45,43,-178307,-11991,105674,7,13272,839,-29102,397828,166,-728,2123,9496
628,1416,4,21,1,8,29,21,3,10,1,41,632.000,-4.000,384126,17332,-272,-4090,-534,-45,43,-178307,-11991,105674,7,13272,839,-29102,397828,166,-728,2123,9496
634,1422,5,25,-3,11,28,22,2,4,1,41,632.000,2.000,384126,17332,-272,-4090,-534,-45,43,-178307,-11991,105674,7,13272,839,-29102,397828,166,-728,2123,9496
634,1422,-7,14,-1,-19,23,7,-9,-22,1,41,632.000,2.000,384126,17332,-272,-4090,-534,-45,43,-178307,-11991,105674,7,13272,839,-29102,397828,166,-728,2123,9496
649,1437,2,21,3,-1,57,17,10,-2,1,43,654.000,-5.000,384148,17380,-272,-4112,-532,-45,49,-177441,-10680,105622,7,13271,842,-29107,397829,165,-727,2124,9495
649,1437,0,21,0,5,29,20,1,9,1,43,654.000,-5.000,384148,17380,-272,-4112,-532,-45,49,-177441,-10680,105622,7,13271,842,-29107,397829,165,-727,2124,9495
651,1438,4,24,-1,9,29,22,4,4,1,43,654.000,-3.000,384148,17380,-272,-4112,-532,-45,49,-177441,-10680,105622,7,13271,842,-29107,397829,165,-727,2124,9495
651,1438,-4,16,-2,-11,26,9,-8,-23,1,43,654.000,-3.000,384148,17380,-272,-4112,-532,-45,49,-177441,-10680,105622,7,13271,842,-29107,397829,165,-727,2124,9495
672,1460,2,26,0,7,59,17,7,-1,1,45,677.000,-5.000,384170,17346,-284,-4076,-541,-46,42,-176577,-9369,105550,7,13276,848,-29086,397862,165,-728,2124,9491
672,1460,1,20,0,3,31,19,3,8,1,45,677.000,-5.000,384170,17346,-284,-4076,-541,-46,42,-176577,-9369,105550,7,13276,848,-29086,397862,165,-728,2124,9491
673,1462,4,24,-1,7,24,21,3,4,1,45,677.000,-4.000,384170,17346,-284,-4076,-541,-46,42,-176577,-9369,105550,7,13276,848,-29086,397862,165,-728,2124,9491
673,1462,-5,15,-3,-10,24,11,-10,-22,1,45,677.000,-4.000,384170,17346,-284,-4076,-541,-46,42,-176577,-9369,105550,7,13276,848,-29086,397862,165,-728,2124,9491
694,1482,3,29,3,3,58,25,7,-2,1,47,699.000,-5.000,384192,17382,-300,-4046,-543,-41,47,-175720,-8069,105460,7,13275,853,-29078,397917,165,-727,2125,9488
694,1482,3,20,-4,6,29,19,3,11,1,47,699.000,-5.000,384192,17382,-300,-4046,-543,-41,47,-175720,-8069,105460,7,13275,853,-29078,397917,165,-727,2125,9488
696,1484,1,25,0,5,24,22,0,4,1,47,699.000,-3.000,384192,17382,-300,-4046,-543,-41,47,-175720,-8069,105460,7,13275,853,-29078,397917,165,-727,2125,9488
696,1484,-8,17,0,-8,24,13,-7,-18,1,47,699.000,-3.000,384192,17382,-300,-4046,-543,-41,47,-175720,-8069,105460,7,13275,853,-29078,397917,165,-727,2125,9488
709,1497,1,34,0,11,54,21,9,-1,1,48,710.000,-1.000,384203,17332,-304,-4178,-542,-45,49,-175292,-7419,105408,7,13284,857,-29065,397950,165,-730,2126,9485
709,1497,2,21,-2,2,32,18,2,7,1,48,710.000,-1.000,384203,17332,-304,-4178,-542,-45,49,-175292,-7419,105408,7,13284,857,-29065,397950,165,-730,2126,9485
711,1498,2,24,-1,-5,19,21,4,3,1,48,710.000,1.000,384203,17332,-304,-4178,-542,-45,49,-175292,-7419,105408,7,13284,857,-29065,397950,165,-730,2126,9485
711,1498,-8,17,-1,-12,24,13,-10,-24,1,48,710.000,1.000,384203,17332,-304,-4178,-542,-45,49,-175292,-7419,105408,7,13284,857,-29065,397950,165,-730,2126,9485
732,1519,5,33,-1,7,51,26,8,-1,1,50,732.000,0.000,384225,17360,-232,-4112,-537,-39,46,-174435,-6118,105289,7,13287,858,-29073,397982,165,-730,2126,9484
732,1519,2,20,1,11,30,18,1,10,1,50,732.000,0.000,384225,17360,-232,-4112,-537,-39,46,-174435,-6118,105289,7,13287,858,-29073,397982,165,-730,2126,9484
733,1520,2,25,-1,11,17,21,1,3,1,50,732.000,1.000,384225,17360,-232,-4112,-537,-39,46,-174435,-6118,105289,7,13287,858,-29073,397982,165,-730,2126,9484
733,1520,-7,18,-2,-14,22,14,-9,-23,1,50,732.000,1.000,384225,17360,-232,-4112,-537,-39,46,-174435,-6118,105289,7,13287,858,-29073,397982,165,-730,2126,9484
754,1542,2,35,1,2,49,27,4,-1,1,52,754.000,0.000,384248,17320,-254,-4090,-542,-44,38,-173577,-4818,105151,7,13287,852,-29104,398036,166,-730,2125,9487
754,1542,2,21,0,6,31,18,3,9,1,52,754.000,0.000,384248,17320,-254,-4090,-542,-44,38,-173577,-4818,105151,7,13287,852,-29104,398036,166,-730,2125,9487
756,1544,4,24,1,9,27,22,0,4,1,52,754.000,2.000,384248,17320,-254,-4090,-542,-44,38,-173577,-4818,105151,7,13287,852,-29104,398036,166,-730,2125,9487
756,1544,-6,18,1,-13,23,14,-11,-21,1,52,754.000,2.000,384248,17320,-254,-4090,-542,-44,38,-173577,-4818,105151,7,13287,852,-29104,398036,166,-730,2125,9487
769,1558,3,32,-1,2,52,27,7,-2,1,53,765.000,4.000,384259,17388,-242,-4136,-533,-35,45,-173147,-4169,105075,7,13289,850,-29118,398073,166,-731,2125,9488
769,1558,1,21,6,5,33,18,1,8,1,53,765.000,4.000,384259,17388,-242,-4136,-533,-35,45,-173147,-4169,105075,7,13289,850,-29118,398073,166,-731,2125,9488
771,1559,3,24,0,9,17,22,-1,4,1,54,776.000,-5.000,384270,17344,-214,-4160,-531,-47,47,-172716,-3520,104993,7,13296,846,-29141,398109,167,-733,2124,9491
771,1559,-5,18,-1,-11,22,14,-7,-20,1,54,776.000,-5.000,384270,17344,-214,-4160,-531,-47,47,-172716,-3520,104993,7,13296,846,-29141,398109,167,-733,2124,9491
792,1581,2,33,-1,7,50,28,6,-2,1,55,788.000,4.000,384281,17370,-300,-4092,-536,-49,46,-172284,-2872,104907,7,13296,849,-29132,398142,165,-733,2125,9489
792,1581,3,21,0,5,28,19,2,9,1,55,788.000,4.000,384281,17370,-300,-4092,-536,-49,46,-172284,-2872,104907,7,13296,849,-29132,398142,165,-733,2125,9489
794,1582,-1,23,-2,5,20,21,-1,3,1,56,798.000,-4.000,384292,17362,-316,-4080,-530,-45,51,-171851,-2224,104816,7,13295,854,-29119,398178,165,-732,2126,9486
794,1582,-7,18,0,-13,25,14,-8,-18,1,56,798.000,-4.000,384292,17362,-316,-4080,-530,-45,51,-171851,-2224,104816,7,13295,854,-29119,398178,165,-732,2126,9486
814,1602,2,33,-3,4,48,27,6,0,1,57,809.000,5.000,384303,17360,-298,-4092,-548,-44,48,-171418,-1576,104721,7,13294,857,-29114,398215,165,-731,2126,9484
814,1602,2,20,-3,6,32,18,3,11,1,57,809.000,5.000,384303,17360,-298,-4092,-548,-44,48,-171418,-1576,104721,7,13294,857,-29114,398215,165,-731,2126,9484
822,1609,2,23,1,9,15,21,-1,3,1,58,820.000,2.000,384314,17382,-212,-4122,-545,-42,49,-170983,-929,104622,7,13296,853,-29140,398250,165,-732,2125,9487
822,1609,-7,18,-4,-12,23,15,-8,-21,1,58,820.000,2.000,384314,17382,-212,-4122,-545,-42,49,-170983,-929,104622,7,13296,853,-29140,398250,165,-732,2125,9487
829,1616,2,37,3,0,56,31,6,-1,1,59,831.000,-2.000,384325,17310,-268,-4084,-539,-43,45,-170550,-288,104518,7,13296,853,-29145,398290,165,-732,2125,9487
829,1616,3,21,1,9,30,18,0,9,1,59,831.000,-2.000,384325,17310,-268,-4084,-539,-43,45,-170550,-288,104518,7,13296,853,-29145,398290,165,-732,2125,9487
831,1619,1,22,2,7,17,20,-1,4,1,59,831.000,0.000,384325,17310,-268,-4084,-539,-43,45,-170550,-288,104518,7,13296,853,-29145,398290,165,-732,2125,9487
831,1619,-3,19,-3,-22,22,15,-9,-17,1,59,831.000,0.000,384325,17310,-268,-4084,-539,-43,45,-170550,-288,104518,7,13296,853,-29145,398290,165,-732,2125,9487
852,1639,2,33,-1,8,38,30,6,-1,1,61,853.000,-1.000,384347,17352,-278,-4058,-540,-41,45,-169684,988,104296,7,13287,854,-29157,398381,166,-729,2125,9487
852,1639,1,20,2,4,32,18,5,10,1,61,853.000,-1.000,384347,17352,-278,-4058,-540,-41,45,-169684,988,104296,7,13287,854,-29157,398381,166,-729,2125,9487
853,1641,2,21,1,7,14,21,0,4,1,61,853.000,0.000,384347,17352,-278,-4058,-540,-41,45,-169684,988,104296,7,13287,854,-29157,398381,166,-729,2125,9487
853,1641,-6,18,-3,-10,23,15,-7,-18,1,61,853.000,0.000,384347,17352,-278,-4058,-540,-41,45,-169684,988,104296,7,13287,854,-29157,398381,166,-729,2125,9487
874,1662,4,37,3,4,37,29,9,-2,1,63,875.000,-1.000,384369,17382,-268,-4106,-535,-40,41,-168812,2262,104054,7,13294,853,-29170,398481,165,-731,2125,9487
874,1662,4,21,2,9,30,18,2,9,1,63,875.000,-1.000,384369,17382,-268,-4106,-535,-40,41,-168812,2262,104054,7,13294,853,-29170,398481,165,-731,2125,9487
876,1663,1,21,0,3,15,19,-2,4,1,63,875.000,1.000,384369,17382,-268,-4106,-535,-40,41,-168812,2262,104054,7,13294,853,-29170,398481,165,-731,2125,9487
876,1663,-7,19,-3,-15,23,15,-8,-21,1,63,875.000,1.000,384369,17382,-268,-4106,-535,-40,41,-168812,2262,104054,7,13294,853,-29170,398481,165,-731,2125,9487
888,1676,2,36,-4,6,53,30,2,-1,1,64,886.000,2.000,384379,17342,-242,-4078,-537,-45,38,-168372,2901,103925,7,13293,850,-29183,398531,165,-730,2125,9488
888,1676,0,20,1,13,31,18,2,8,1,64,886.000,2.000,384379,17342,-242,-4078,-537,-45,38,-168372,2901,103925,7,13293,850,-29183,398531,165,-730,2125,9488
895,1683,3,21,2,5,18,19,-3,4,1,65,897.000,-2.000,384390,17340,-258,-4070,-538,-38,41,-167930,3539,103792,7,13291,849,-29191,398583,165,-729,2125,9488
895,1683,-7,18,-2,-16,22,15,-5,-19,1,65,897.000,-2.000,384390,17340,-258,-4070,-538,-38,41,-167930,3539,103792,7,13291,849,-29191,398583,165,-729,2125,9488
912,1699,3,36,1,8,38,28,5,-1,1,66,908.000,4.000,384401,17306,-260,-4060,-545,-45,47,-167485,4176,103653,7,13289,849,-29200,398637,165,-728,2125,9488
912,1699,0,21,-3,5,31,18,3,10,1,66,908.000,4.000,384401,17306,-260,-4060,-545,-45,47,-167485,4176,103653,7,13289,849,-29200,398637,165,-728,2125,9488
913,1701,0,21,-1,6,19,18,-6,3,1,66,908.000,5.000,384401,17306,-260,-4060,-545,-45,47,-167485,4176,103653,7,13289,849,-29200,398637,165,-728,2125,9488
913,1701,-5,18,1,-10,21,15,-8,-18,1,66,908.000,5.000,384401,17306,-260,-4060,-545,-45,47,-167485,4176,103653,7,13289,849,-29200,398637,165,-728,2125,9488
934,1722,3,39,-2,2,32,34,7,0,1,68,930.000,4.000,384423,17384,-280,-4146,-536,-43,53,-166590,5447,103361,7,13295,852,-29205,398750,165,-730,2125,9487
934,1722,0,22,-1,6,32,18,4,9,1,68,930.000,4.000,384423,17384,-280,-4146,-536,-43,53,-166590,5447,103361,7,13295,852,-29205,398750,165,-730,2125,9487
940,1728,1,21,0,0,7,18,-2,3,1,69,941.000,-1.000,384434,17362,-252,-4090,-547,-46,51,-166139,6081,103208,7,13295,851,-29215,398805,165,-730,2125,9488
940,1728,-7,18,-2,-7,21,16,-10,-20,1,69,941.000,-1.000,384434,17362,-252,-4090,-547,-46,51,-166139,6081,103208,7,13295,851,-29215,398805,165,-730,2125,9488
948,1736,3,45,1,-2,38,30,5,0,1,70,952.000,-4.000,384445,17336,-254,-4084,-541,-46,42,-165685,6715,103049,7,13295,850,-29223,398861,165,-729,2125,9488
948,1736,1,22,-1,3,32,18,2,11,1,70,952.000,-4.000,384445,17336,-254,-4084,-541,-46,42,-165685,6715,103049,7,13295,850,-29223,398861,165,-729,2125,9488
955,1743,0,21,0,3,3,18,-4,3,1,70,952.000,3.000,384445,17336,-254,-4084,-541,-46,42,-165685,6715,103049,7,13295,850,-29223,398861,165,-729,2125,9488
955,1743,-6,18,-5,-12,22,16,-7,-23,1,70,952.000,3.000,384445,17336,-254,-4084,-541,-46,42,-165685,6715,103049,7,13295,850,-29223,398861,165,-729,2125,9488
972,1759,2,42,7,8,39,35,5,1,1,72,973.000,-1.000,384467,17354,-278,-4158,-533,-45,42,-164770,7979,102715,7,13303,849,-29232,398975,169,-732,2125,9488
972,1759,2,22,-3,5,33,19,1,8,1,72,973.000,-1.000,384467,17354,-278,-4158,-533,-45,42,-164770,7979,102715,7,13303,849,-29232,398975,169,-732,2125,9488
973,1761,1,19,0,-2,5,17,-4,4,1,72,973.000,0.000,384467,17354,-278,-4158,-533,-45,42,-164770,7979,102715,7,13303,849,-29232,398975,169,-732,2125,9488
973,1761,-6,19,-1,-11,21,16,-7,-19,1,72,973.000,0.000,384467,17354,-278,-4158,-533,-45,42,-164770,7979,102715,7,13303,849,-29232,398975,169,-732,2125,9488
994,1782,2,39,-3,8,39,36,3,1,1,74,995.000,-1.000,384489,17330,-268,-4106,-536,-41,40,-163844,9240,102358,7,13307,850,-29240,399085,165,-732,2125,9487
994,1782,4,23,-4,-1,32,19,2,10,1,74,995.000,-1.000,384489,17330,-268,-4106,-536,-41,40,-163844,9240,102358,7,13307,850,-29240,399085,165,-732,2125,9487
996,1783,1,15,0,6,13,15,-5,3,1,74,995.000,1.000,384489,17330,-268,-4106,-536,-41,40,-163844,9240,102358,7,13307,850,-29240,399085,165,-732,2125,9487
996,1783,-6,17,0,-10,24,15,-7,-17,1,74,995.000,1.000,384489,17330,-268,-4106,-536,-41,40,-163844,9240,102358,7,13307,850,-29240,399085,165,-732,2125,9487
1008,1796,3,37,-1,4,40,33,4,1,1,75,1006.000,2.000,384500,17322,-280,-4144,-541,-37,46,-163377,9868,102172,7,13311,851,-29242,399139,165,-734,2126,9486
1008,1796,2,23,0,15,31,19,0,10,1,75,1006.000,2.000,384500,17322,-280,-4144,-541,-37,46,-163377,9868,102172,7,13311,851,-29242,399139,165,-734,2126,9486
1015,1803,0,15,-1,-3,10,13,-6,3,1,76,1017.000,-2.000,384511,17360,-266,-4098,-547,-45,47,-162906,10494,101981,7,13311,851,-29249,399192,165,-734,2126,9486
1015,1803,-6,18,-1,-11,25,16,-8,-15,1,76,1017.000,-2.000,384511,17360,-266,-4098,-547,-45,47,-162906,10494,101981,7,13311,851,-29249,399192,165,-734,2126,9486
1032,1819,2,42,1,11,30,35,5,1,1,77,1028.000,4.000,384522,17374,-222,-4092,-543,-53,44,-162427,11125,101783,7,13311,847,-29265,399246,165,-733,2125,9488
1032,1819,3,23,2,12,30,20,1,9,1,77,1028.000,4.000,384522,17374,-222,-4092,-543,-53,44,-162427,11125,101783,7,13311,847,-29265,399246,165,-733,2125,9488
1033,1821,-1,13,-3,-11,-1,11,-7,3,1,77,1028.000,5.000,384522,17374,-222,-4092,-543,-53,44,-162427,11125,101783,7,13311,847,-29265,399246,165,-733,2125,9488
1033,1821,-6,18,-1,-9,24,14,-6,-14,1,77,1028.000,5.000,384522,17374,-222,-4092,-543,-53,44,-162427,11125,101783,7,13311,847,-29265,399246,165,-733,2125,9488
1054,1842,1,38,1,10,35,36,3,1,1,79,1051.000,3.000,384544,17386,-274,-4098,-539,-44,48,-161461,12381,101367,7,13309,846,-29282,399361,165,-732,2124,9489
1054,1842,2,23,0,-4,31,20,4,9,1,79,1051.000,3.000,384544,17386,-274,-4098,-539,-44,48,-161461,12381,101367,7,13309,846,-29282,399361,165,-732,2124,9489
1056,1843,2,13,-3,0,16,12,-5,4,1,79,1051.000,5.000,384544,17386,-274,-4098,-539,-44,48,-161461,12381,101367,7,13309,846,-29282,399361,165,-732,2124,9489
1056,1843,-6,17,-2,-13,25,14,-6,-11,1,79,1051.000,5.000,384544,17386,-274,-4098,-539,-44,48,-161461,12381,101367,7,13309,846,-29282,399361,165,-732,2124,9489
1068,1856,0,41,3,6,32,29,4,6,1,81,1073.000,-5.000,384566,17360,-254,-4078,-539,-47,42,-160479,13632,100927,7,13306,848,-29290,399479,165,-730,2125,9488
1068,1856,1,24,-3,5,31,20,0,9,1,81,1073.000,-5.000,384566,17360,-254,-4078,-539,-47,42,-160479,13632,100927,7,13306,848,-29290,399479,165,-730,2125,9488
1075,1863,-2,11,0,3,0,9,-7,4,1,81,1073.000,2.000,384566,17360,-254,-4078,-539,-47,42,-160479,13632,100927,7,13306,848,-29290,399479,165,-730,2125,9488
1075,1863,-3,16,-1,-12,25,15,-8,-12,1,81,1073.000,2.000,384566,17360,-254,-4078,-539,-47,42,-160479,13632,100927,7,13306,848,-29290,399479,165,-730,2125,9488
1092,1880,3,39,-2,8,32,35,2,1,1,83,1095.000,-3.000,384588,17336,-268,-4070,-539,-43,48,-159480,14876,100463,7,13305,849,-29301,399601,165,-730,2125,9487
1092,1880,2,24,1,0,29,19,1,8,1,83,1095.000,-3.000,384588,17336,-268,-4070,-539,-43,48,-159480,14876,100463,7,13305,849,-29301,399601,165,-730,2125,9487
1093,1881,-1,10,2,-1,4,9,-7,4,1,83,1095.000,-2.000,384588,17336,-268,-4070,-539,-43,48,-159480,14876,100463,7,13305,849,-29301,399601,165,-730,2125,9487
1093,1881,-6,16,0,-10,26,14,-5,-10,1,83,1095.000,-2.000,384588,17336,-268,-4070,-539,-43,48,-159480,14876,100463,7,13305,849,-29301,399601,165,-730,2125,9487
1122,1910,2,34,1,4,28,34,3,4,1,85,1117.000,5.000,384610,17370,-308,-4044,-536,-41,42,-158465,16113,99973,7,13295,853,-29312,399726,165,-726,2127,9486
1122,1910,0,22,0,8,29,20,2,9,1,85,1117.000,5.000,384610,17370,-308,-4044,-536,-41,42,-158465,16113,99973,7,13295,853,-29312,399726,165,-726,2127,9486
1123,1911,-2,9,-3,-2,-4,10,-8,3,1,86,1128.000,-5.000,384621,17340,-262,-4092,-547,-45,44,-157954,16724,99721,7,13295,853,-29319,399788,165,-726,2126,9486
1123,1911,-5,17,2,-6,26,13,-4,-9,1,86,1128.000,-5.000,384621,17340,-262,-4092,-547,-45,44,-157954,16724,99721,7,13295,853,-29319,399788,165,-726,2126,9486
1128,1917,2,38,-2,0,30,33,2,1,1,86,1128.000,0.000,384621,17340,-262,-4092,-547,-45,44,-157954,16724,99721,7,13295,853,-29319,399788,165,-726,2126,9486
1128,1917,3,22,0,-2,28,20,0,9,1,86,1128.000,0.000,384621,17340,-262,-4092,-547,-45,44,-157954,16724,99721,7,13295,853,-29319,399788,165,-726,2126,9486
1152,1940,-2,9,-3,4,5,9,-6,4,1,88,1150.000,2.000,384643,17356,-254,-4078,-543,-44,41,-156919,17940,99196,7,13286,850,-29328,399912,165,-723,2126,9486
1152,1940,-6,16,1,-14,24,12,-5,-10,1,88,1150.000,2.000,384643,17356,-254,-4078,-543,-44,41,-156919,17940,99196,7,13286,850,-29328,399912,165,-723,2126,9486
1153,1940,1,37,-3,12,32,32,3,4,1,88,1150.000,3.000,384643,17356,-254,-4078,-543,-44,41,-156919,17940,99196,7,13286,850,-29328,399912,165,-723,2126,9486
1153,1940,2,22,0,12,28,20,1,7,1,88,1150.000,3.000,384643,17356,-254,-4078,-543,-44,41,-156919,17940,99196,7,13286,850,-29328,399912,165,-723,2126,9486
1155,1942,-2,9,-3,-5,12,7,-9,4,1,88,1150.000,5.000,384643,17356,-254,-4078,-543,-44,41,-156919,17940,99196,7,13286,850,-29328,399912,165,-723,2126,9486
1155,1942,-5,16,-3,-9,26,13,-7,-8,1,88,1150.000,5.000,384643,17356,-254,-4078,-543,-44,41,-156919,17940,99196,7,13286,850,-29328,399912,165,-723,2126,9486
1174,1962,2,34,1,8,29,34,5,4,1,90,1172.000,2.000,384665,17366,-276,-4120,-538,-46,48,-155865,19147,98645,7,13290,852,-29343,400035,165,-723,2126,9486
1174,1962,1,23,1,6,29,19,2,10,1,90,1172.000,2.000,384665,17366,-276,-4120,-538,-46,48,-155865,19147,98645,7,13290,852,-29343,400035,165,-723,2126,9486
1180,1968,-2,9,2,-2,7,8,-8,4,1,91,1183.000,-3.000,384676,17370,-246,-4102,-540,-40,44,-155329,19748,98358,7,13290,850,-29348,400096,165,-723,2126,9486
1180,1968,-7,15,-1,-9,24,13,-3,-9,1,91,1183.000,-3.000,384676,17370,-246,-4102,-540,-40,44,-155329,19748,98358,7,13290,850,-29348,400096,165,-723,2126,9486
1188,1976,3,38,-4,3,33,33,1,2,1,91,1183.000,5.000,384676,17370,-246,-4102,-540,-40,44,-155329,19748,98358,7,13290,850,-29348,400096,165,-723,2126,9486
1188,1976,0,23,2,1,29,19,2,11,1,91,1183.000,5.000,384676,17370,-246,-4102,-540,-40,44,-155329,19748,98358,7,13290,850,-29348,400096,165,-723,2126,9486
1195,1983,-3,11,0,-3,-7,10,-7,4,1,92,1194.000,1.000,384687,17370,-274,-4068,-544,-40,53,-154789,20346,98065,7,13287,851,-29355,400158,165,-722,2126,9486
1195,1983,-5,15,-2,-11,25,13,-6,-8,1,92,1194.000,1.000,384687,17370,-274,-4068,-544,-40,53,-154789,20346,98065,7,13287,851,-29355,400158,165,-722,2126,9486
1219,2007,1,35,4,10,34,33,4,2,1,94,1215.000,4.000,384709,17338,-288,-4098,-535,-45,46,-153689,21535,97457,7,13292,852,-29368,400281,165,-723,2126,9486
1219,2007,1,23,2,9,31,20,1,9,1,94,1215.000,4.000,384709,17338,-288,-4098,-535,-45,46,-153689,21535,97457,7,13292,852,-29368,400281,165,-723,2126,9486
1221,2009,-1,11,-2,-1,-1,10,-6,3,1,95,1226.000,-5.000,384720,17362,-254,-4122,-533,-49,38,-153130,22126,97140,7,13295,851,-29373,400343,165,-724,2126,9486
1221,2009,-6,16,-1,-9,25,13,-5,-8,1,95,1226.000,-5.000,384720,17362,-254,-4122,-533,-49,38,-153130,22126,97140,7,13295,851,-29373,400343,165,-724,2126,9486
1234,2022,0,33,0,4,27,32,4,4,1,96,1237.000,-3.000,384731,17332,-278,-4026,-533,-51,46,-152564,22714,96816,7,13290,852,-29379,400405,165,-722,2126,9486
1234,2022,3,23,-2,4,29,20,1,8,1,96,1237.000,-3.000,384731,17332,-278,-4026,-533,-51,46,-152564,22714,96816,7,13290,852,-29379,400405,165,-722,2126,9486
1235,2023,-1,3,2,-1,-1,8,-7,3,1,96,1237.000,-2.000,384731,17332,-278,-4026,-533,-51,46,-152564,22714,96816,7,13290,852,-29379,400405,165,-722,2126,9486
1236,2023,-4,16,-3,-7,25,13,-2,-8,1,96,1237.000,-1.000,384731,17332,-278,-4026,-533,-51,46,-152564,22714,96816,7,13290,852,-29379,400405,165,-722,2126,9486
1248,2035,2,38,4,6,35,34,4,6,1,97,1248.000,0.000,384742,17364,-220,-4078,-545,-50,47,-151993,23299,96485,7,13289,848,-29380,400466,165,-721,2125,9486
1248,2035,1,23,-1,3,31,20,2,11,1,97,1248.000,0.000,384742,17364,-220,-4078,-545,-50,47,-151993,23299,96485,7,13289,848,-29380,400466,165,-721,2125,9486
1257,2045,-1,3,1,-2,-3,5,-13,3,1,98,1259.000,-2.000,384753,17386,-252,-4094,-538,-47,45,-151415,23882,96146,7,13289,847,-29385,400526,165,-721,2124,9486
1257,2045,-7,16,-2,-6,27,14,-1,-8,1,98,1259.000,-2.000,384753,17386,-252,-4094,-538,-47,45,-151415,23882,96146,7,13289,847,-29385,400526,165,-721,2124,9486
1279,2066,0,34,-2,6,31,33,2,5,1,100,1281.000,-2.000,384775,17348,-292,-4118,-541,-44,39,-150240,25039,95444,7,13290,847,-29400,400644,165,-721,2125,9486
1279,2066,2,24,1,9,31,21,1,10,1,100,1281.000,-2.000,384775,17348,-292,-4118,-541,-44,39,-150240,25039,95444,7,13290,847,-29400,400644,165,-721,2125,9486
1281,2069,-2,3,-5,-16,-2,3,-8,3,1,100,1281.000,0.000,384775,17348,-292,-4118,-541,-44,39,-150240,25039,95444,7,13290,847,-29400,400644,165,-721,2125,9486
1281,2069,-4,16,0,-9,25,14,-4,-6,1,100,1281.000,0.000,384775,17348,-292,-4118,-541,-44,39,-150240,25039,95444,7,13290,847,-29400,400644,165,-721,2125,9486
1294,2082,2,36,-1,5,33,33,4,4,1,101,1292.000,2.000,384786,17370,-274,-4082,-545,-42,49,-149643,25612,95081,7,13289,848,-29408,400704,165,-720,2125,9486
1294,2082,2,24,-2,0,30,21,0,7,1,101,1292.000,2.000,384786,17370,-274,-4082,-545,-42,49,-149643,25612,95081,7,13289,848,-29408,400704,165,-720,2125,9486
1296,2084,-2,-9,1,1,-4,-8,-8,0,1,101,1292.000,4.000,384786,17370,-274,-4082,-545,-42,49,-149643,25612,95081,7,13289,848,-29408,400704,165,-720,2125,9486
1296,2084,-4,16,-4,-6,27,14,0,-5,1,101,1292.000,4.000,384786,17370,-274,-4082,-545,-42,49,-149643,25612,95081,7,13289,848,-29408,400704,165,-720,2125,9486
1308,2096,1,34,-1,1,31,32,1,7,1,102,1303.000,5.000,384797,17350,-278,-4032,-543,-46,45,-149037,26183,94709,7,13284,849,-29417,400764,165,-719,2125,9486
1308,2096,2,22,-3,8,31,20,3,9,1,102,1303.000,5.000,384797,17350,-278,-4032,-543,-46,45,-149037,26183,94709,7,13284,849,-29417,400764,165,-719,2125,9486
1317,2105,-3,-9,2,-2,4,-6,-9,0,1,103,1314.000,3.000,384808,17352,-260,-4090,-545,-41,37,-148425,26751,94328,7,13284,848,-29422,400822,165,-718,2125,9486
1317,2105,-3,16,-3,-9,27,13,-1,-4,1,103,1314.000,3.000,384808,17352,-260,-4090,-545,-41,37,-148425,26751,94328,7,13284,848,-29422,400822,165,-718,2125,9486
1339,2126,1,32,0,-3,31,38,3,8,1,105,1336.000,3.000,384830,17354,-256,-4118,-545,-41,43,-147177,27875,93540,7,13285,843,-29426,400937,165,-719,2124,9486
1339,2126,3,22,-1,2,29,21,2,12,1,105,1336.000,3.000,384830,17354,-256,-4118,-545,-41,43,-147177,27875,93540,7,13285,843,-29426,400937,165,-719,2124,9486
1341,2129,-3,-5,-2,-5,2,-6,-7,2,1,105,1336.000,5.000,384830,17354,-256,-4118,-545,-41,43,-147177,27875,93540,7,13285,843,-29426,400937,165,-719,2124,9486
1341,2129,-5,17,-3,-2,26,14,-4,-2,1,105,1336.000,5.000,384830,17354,-256,-4118,-545,-41,43,-147177,27875,93540,7,13285,843,-29426,400937,165,-719,2124,9486
1354,2142,4,33,3,8,32,32,0,5,1,107,1358.000,-4.000,384852,17374,-264,-4094,-534,-38,43,-145896,28985,92714,7,13287,843,-29438,401052,165,-719,2124,9486
1354,2142,2,22,1,6,31,20,2,8,1,107,1358.000,-4.000,384852,17374,-264,-4094,-534,-38,43,-145896,28985,92714,7,13287,843,-29438,401052,165,-719,2124,9486
1356,2143,-4,-5,-3,-4,1,-10,-7,0,1,107,1358.000,-2.000,384852,17374,-264,-4094,-534,-38,43,-145896,28985,92714,7,13287,843,-29438,401052,165,-719,2124,9486
1356,2143,-5,16,-3,-8,26,13,-1,-3,1,107,1358.000,-2.000,384852,17374,-264,-4094,-534,-38,43,-145896,28985,92714,7,13287,843,-29438,401052,165,-719,2124,9486
1377,2164,4,34,-1,9,31,30,4,5,1,109,1380.000,-3.000,384874,17324,-312,-4088,-545,-49,44,-144581,30079,91852,7,13288,844,-29454,401165,166,-719,2124,9486
1377,2164,3,22,0,8,31,19,0,5,1,109,1380.000,-3.000,384874,17324,-312,-4088,-545,-49,44,-144581,30079,91852,7,13288,844,-29454,401165,166,-719,2124,9486
1378,2167,-5,-4,1,-1,7,-9,-11,-1,1,109,1380.000,-2.000,384874,17324,-312,-4088,-545,-49,44,-144581,30079,91852,7,13288,844,-29454,401165,166,-719,2124,9486
1378,2167,-3,16,-1,-10,25,15,-2,-2,1,109,1380.000,-2.000,384874,17324,-312,-4088,-545,-49,44,-144581,30079,91852,7,13288,844,-29454,401165,166,-719,2124,9486
1399,2187,3,26,0,6,30,30,2,7,1,111,1402.000,-3.000,384896,17402,-226,-4116,-535,-44,40,-143231,31156,90948,7,13290,838,-29457,401282,166,-719,2123,9486
1399,2187,2,21,-1,5,29,19,2,10,1,111,1402.000,-3.000,384896,17402,-226,-4116,-535,-44,40,-143231,31156,90948,7,13290,838,-29457,401282,166,-719,2123,9486
1401,2188,-3,-2,0,-6,11,-4,-9,0,1,111,1402.000,-1.000,384896,17402,-226,-4116,-535,-44,40,-143231,31156,90948,7,13290,838,-29457,401282,166,-719,2123,9486
1401,2188,-4,17,-1,-7,27,14,1,-2,1,111,1402.000,-1.000,384896,17402,-226,-4116,-535,-44,40,-143231,31156,90948,7,13290,838,-29457,401282,166,-719,2123,9486
1414,2202,3,31,-1,3,31,31,1,10,1,112,1413.000,1.000,384906,17340,-240,-4084,-544,-40,42,-142543,31688,90482,7,13289,836,-29461,401339,165,-719,2122,9486
1414,2202,4,20,-1,10,30,18,1,9,1,112,1413.000,1.000,384906,17340,-240,-4084,-544,-40,42,-142543,31688,90482,7,13289,836,-29461,401339,165,-719,2122,9486
1416,2204,-5,-7,-1,-9,13,-9,-8,0,1,112,1413.000,3.000,384906,17340,-240,-4084,-544,-40,42,-142543,31688,90482,7,13289,836,-29461,401339,165,-719,2122,9486
1416,2204,-4,17,-1,-2,32,14,2,-1,1,112,1413.000,3.000,384906,17340,-240,-4084,-544,-40,42,-142543,31688,90482,7,13289,836,-29461,401339,165,-719,2122,9486
1428,2216,2,30,0,5,30,28,1,6,1,113,1424.000,4.000,384917,17324,-218,-4108,-533,-44,47,-141845,32215,90005,7,13291,833,-29460,401394,165,-719,2121,9486
1428,2216,2,21,1,2,30,18,2,6,1,113,1424.000,4.000,384917,17324,-218,-4108,-533,-44,47,-141845,32215,90005,7,13291,833,-29460,401394,165,-719,2121,9486
1437,2225,-4,-1,-3,-9,6,-5,-11,1,1,114,1435.000,2.000,384928,17320,-292,-4122,-539,-38,45,-141138,32738,89517,7,13294,835,-29468,401447,165,-720,2122,9485
1437,2225,-3,16,2,-1,41,15,-2,-2,1,114,1435.000,2.000,384928,17320,-292,-4122,-539,-38,45,-141138,32738,89517,7,13294,835,-29468,401447,165,-720,2122,9485
1452,2240,4,31,-1,-5,30,25,5,7,1,116,1457.000,-5.000,384950,17316,-280,-4132,-543,-45,48,-139692,33769,88511,7,13296,837,-29485,401560,165,-720,2122,9485
1452,2240,0,22,-1,7,34,18,3,8,1,116,1457.000,-5.000,384950,17316,-280,-4132,-543,-45,48,-139692,33769,88511,7,13296,837,-29485,401560,165,-720,2122,9485
1453,2241,-4,-7,-4,-12,10,-8,-7,-1,1,116,1457.000,-4.000,384950,17316,-280,-4132,-543,-45,48,-139692,33769,88511,7,13296,837,-29485,401560,165,-720,2122,9485
1453,2241,-4,16,1,-5,37,14,1,-2,1,116,1457.000,-4.000,384950,17316,-280,-4132,-543,-45,48,-139692,33769,88511,7,13296,837,-29485,401560,165,-720,2122,9485
1474,2262,0,28,0,6,30,26,1,8,1,118,1479.000,-5.000,384972,17352,-304,-4140,-536,-45,44,-138206,34779,87459,7,13295,840,-29504,401674,165,-719,2123,9486
1474,2262,1,21,0,6,33,18,4,9,1,118,1479.000,-5.000,384972,17352,-304,-4140,-536,-45,44,-138206,34779,87459,7,13295,840,-29504,401674,165,-719,2123,9486
1475,2264,-4,-4,-2,-6,8,-5,-9,-1,1,118,1479.000,-4.000,384972,17352,-304,-4140,-536,-45,44,-138206,34779,87459,7,13295,840,-29504,401674,165,-719,2123,9486
1476,2264,-2,17,5,-2,36,14,1,-1,1,118,1479.000,-3.000,384972,17352,-304,-4140,-536,-45,44,-138206,34779,87459,7,13295,840,-29504,401674,165,-719,2123,9486
1488,2275,1,32,-2,-7,32,29,1,7,1,119,1490.000,-2.000,384983,17386,-266,-4094,-540,-44,49,-137448,35275,86917,7,13295,840,-29511,401734,165,-719,2123,9486
1488,2275,0,21,-1,10,34,18,3,10,1,119,1490.000,-2.000,384983,17386,-266,-4094,-540,-44,49,-137448,35275,86917,7,13295,840,-29511,401734,165,-719,2123,9486
1496,2284,-2,-8,-1,-10,3,-8,-13,-4,1,120,1500.000,-4.000,384994,17364,-236,-4064,-540,-50,40,-136677,35766,86362,7,13293,838,-29514,401793,165,-718,2123,9486
1497,2284,-4,17,-1,-7,37,14,3,-2,1,120,1500.000,-3.000,384994,17364,-236,-4064,-540,-50,40,-136677,35766,86362,7,13293,838,-29514,401793,165,-718,2123,9486
1512,2299,1,28,-2,9,31,25,3,5,1,121,1511.000,1.000,385005,17368,-278,-4088,-539,-42,40,-135896,36251,85796,7,13292,839,-29523,401850,165,-718,2123,9486
1512,2299,1,22,0,4,32,18,7,9,1,121,1511.000,1.000,385005,17368,-278,-4088,-539,-42,40,-135896,36251,85796,7,13292,839,-29523,401850,165,-718,2123,9486
1513,2300,-3,-8,0,-9,8,-5,-12,-3,1,121,1511.000,2.000,385005,17368,-278,-4088,-539,-42,40,-135896,36251,85796,7,13292,839,-29523,401850,165,-718,2123,9486
1513,2300,-2,17,-2,-2,36,14,5,-2,1,121,1511.000,2.000,385005,17368,-278,-4088,-539,-42,40,-135896,36251,85796,7,13292,839,-29523,401850,165,-718,2123,9486
1534,2322,2,31,1,10,28,28,3,7,1,123,1533.000,1.000,385027,17362,-264,-4070,-538,-44,39,-134301,37203,84627,7,13289,841,-29541,401967,165,-716,2124,9486
1534,2322,3,22,-1,8,33,18,5,9,1,123,1533.000,1.000,385027,17362,-264,-4070,-538,-44,39,-134301,37203,84627,7,13289,841,-29541,401967,165,-716,2124,9486
1535,2323,-5,-15,1,-7,10,-10,-11,-6,1,123,1533.000,2.000,385027,17362,-264,-4070,-538,-44,39,-134301,37203,84627,7,13289,841,-29541,401967,165,-716,2124,9486
1536,2323,-3,16,-3,-3,37,14,-1,-3,1,123,1533.000,3.000,385027,17362,-264,-4070,-538,-44,39,-134301,37203,84627,7,13289,841,-29541,401967,165,-716,2124,9486
1556,2344,1,31,1,5,30,27,0,7,1,125,1555.000,1.000,385049,17310,-278,-4136,-539,-44,39,-132659,38129,83409,7,13295,846,-29570,402081,165,-718,2127,9487
1556,2344,5,21,-2,12,33,18,3,10,1,125,1555.000,1.000,385049,17310,-278,-4136,-539,-44,39,-132659,38129,83409,7,13295,846,-29570,402081,165,-718,2127,9487
1558,2346,-7,-13,-2,-9,13,-12,-10,-9,1,125,1555.000,3.000,385049,17310,-278,-4136,-539,-44,39,-132659,38129,83409,7,13295,846,-29570,402081,165,-718,2127,9487
1558,2346,-1,16,4,-1,35,14,3,-2,1,125,1555.000,3.000,385049,17310,-278,-4136,-539,-44,39,-132659,38129,83409,7,13295,846,-29570,402081,165,-718,2127,9487
1572,2359,1,34,-2,4,29,35,3,8,1,127,1577.000,-5.000,385071,17360,-230,-4116,-545,-40,51,-130971,39028,82142,7,13295,843,-29576,402197,165,-718,2126,9486
1572,2359,3,23,1,6,34,20,3,9,1,127,1577.000,-5.000,385071,17360,-230,-4116,-545,-40,51,-130971,39028,82142,7,13295,843,-29576,402197,165,-718,2126,9486
1573,2360,-5,-15,-2,-9,17,-13,-10,-10,1,127,1577.000,-4.000,385071,17360,-230,-4116,-545,-40,51,-130971,39028,82142,7,13295,843,-29576,402197,165,-718,2126,9486
1573,2360,-1,15,1,0,31,13,5,-2,1,127,1577.000,-4.000,385071,17360,-230,-4116,-545,-40,51,-130971,39028,82142,7,13295,843,-29576,402197,165,-718,2126,9486
1594,2382,1,29,-1,8,29,29,4,9,1,129,1599.000,-5.000,385093,17314,-264,-4064,-539,-43,51,-129233,39897,80823,7,13293,845,-29591,402315,165,-717,2126,9486
1594,2382,4,22,0,5,31,20,4,10,1,129,1599.000,-5.000,385093,17314,-264,-4064,-539,-43,51,-129233,39897,80823,7,13293,845,-29591,402315,165,-717,2126,9486
1596,2384,-5,-11,-3,-7,18,-16,-9,-10,1,129,1599.000,-3.000,385093,17314,-264,-4064,-539,-43,51,-129233,39897,80823,7,13293,845,-29591,402315,165,-717,2126,9486
1596,2384,-2,16,3,0,33,14,2,-1,1,129,1599.000,-3.000,385093,17314,-264,-4064,-539,-43,51,-129233,39897,80823,7,13293,845,-29591,402315,165,-717,2126,9486
1608,2396,4,30,-1,4,28,31,5,6,1,130,1610.000,-2.000,385104,17388,-238,-4124,-543,-42,52,-128346,40320,80146,7,13295,843,-29594,402374,165,-717,2125,9486
1608,2396,2,22,-1,7,31,20,6,9,1,130,1610.000,-2.000,385104,17388,-238,-4124,-543,-42,52,-128346,40320,80146,7,13295,843,-29594,402374,165,-717,2125,9486
1617,2405,-4,-10,-3,-12,22,-21,-8,-10,1,131,1621.000,-4.000,385115,17366,-272,-4126,-539,-42,45,-127445,40735,79454,7,13297,844,-29602,402433,165,-718,2126,9486
1617,2405,-3,16,-1,1,33,13,5,-1,1,131,1621.000,-4.000,385115,17366,-272,-4126,-539,-42,45,-127445,40735,79454,7,13297,844,-29602,402433,165,-718,2126,9486
1632,2419,2,27,2,8,27,25,-1,10,1,132,1632.000,0.000,385126,17314,-254,-4090,-535,-53,42,-126531,41143,78748,7,13298,843,-29606,402492,165,-718,2125,9486
1632,2419,3,22,3,9,31,19,6,8,1,132,1632.000,0.000,385126,17314,-254,-4090,-535,-53,42,-126531,41143,78748,7,13298,843,-29606,402492,165,-718,2125,9486
1633,2420,-4,-5,-1,-7,22,-15,-7,-10,1,132,1632.000,1.000,385126,17314,-254,-4090,-535,-53,42,-126531,41143,78748,7,13298,843,-29606,402492,165,-718,2125,9486
1633,2420,-1,16,-2,-3,32,14,7,-2,1,132,1632.000,1.000,385126,17314,-254,-4090,-535,-53,42,-126531,41143,78748,7,13298,843,-29606,402492,165,-718,2125,9486
1654,2442,2,27,1,7,27,27,4,8,1,134,1654.000,0.000,385148,17380,-270,-4118,-540,-55,48,-124665,41931,77298,7,13301,847,-29625,402612,165,-718,2127,9486
1654,2442,1,22,-1,14,32,18,3,5,1,134,1654.000,0.000,385148,17380,-270,-4118,-540,-55,48,-124665,41931,77298,7,13301,847,-29625,402612,165,-718,2127,9486
1656,2443,-6,-4,-3,-19,23,-11,-10,-9,1,134,1654.000,2.000,385148,17380,-270,-4118,-540,-55,48,-124665,41931,77298,7,13301,847,-29625,402612,165,-718,2127,9486
1656,2443,1,16,-1,0,29,14,5,-2,1,134,1654.000,2.000,385148,17380,-270,-4118,-540,-55,48,-124665,41931,77298,7,13301,847,-29625,402612,165,-718,2127,9486
1676,2465,0,25,0,3,28,30,3,7,1,136,1676.000,0.000,385170,17346,-256,-4104,-542,-44,43,-122749,42686,75795,7,13308,845,-29639,402732,171,-720,2126,9487
1677,2465,3,22,1,9,32,19,4,7,1,136,1676.000,1.000,385170,17346,-256,-4104,-542,-44,43,-122749,42686,75795,7,13308,845,-29639,402732,171,-720,2126,9487
1678,2466,-4,-1,-1,-5,23,-8,-8,-14,1,136,1676.000,2.000,385170,17346,-256,-4104,-542,-44,43,-122749,42686,75795,7,13308,845,-29639,402732,171,-720,2126,9487
1678,2466,-1,19,-6,0,52,13,4,-1,1,136,1676.000,2.000,385170,17346,-256,-4104,-542,-44,43,-122749,42686,75795,7,13308,845,-29639,402732,171,-720,2126,9487
1692,2480,4,26,3,4,27,28,3,10,1,137,1687.000,5.000,385181,17314,-292,-4104,-537,-47,54,-121770,43049,75024,7,13310,848,-29649,402792,166,-720,2127,9487
1692,2480,2,23,5,8,33,20,3,5,1,137,1687.000,5.000,385181,17314,-292,-4104,-537,-47,54,-121770,43049,75024,7,13310,848,-29649,402792,166,-720,2127,9487
1693,2481,-4,1,-1,-8,23,-4,-13,-9,1,138,1698.000,-5.000,385192,17324,-296,-4096,-526,-52,41,-120778,43401,74238,7,13311,851,-29657,402853,166,-720,2128,9487
1693,2481,-1,19,-1,1,57,13,8,-2,1,138,1698.000,-5.000,385192,17324,-296,-4096,-526,-52,41,-120778,43401,74238,7,13311,851,-29657,402853,166,-720,2128,9487
1714,2502,1,25,0,11,28,26,4,7,1,139,1709.000,5.000,385203,17364,-266,-4072,-536,-46,45,-119774,43745,73439,7,13309,851,-29660,402912,166,-719,2128,9486
1714,2502,3,23,-2,12,35,19,5,6,1,139,1709.000,5.000,385203,17364,-266,-4072,-536,-46,45,-119774,43745,73439,7,13309,851,-29660,402912,166,-719,2128,9486
1716,2504,-6,0,-2,-10,25,-3,-10,-11,1,140,1720.000,-4.000,385213,17346,-266,-4108,-543,-43,44,-118757,44079,72628,7,13310,851,-29667,402972,165,-719,2128,9486
1716,2504,-2,21,-1,0,60,18,7,-2,1,140,1720.000,-4.000,385213,17346,-266,-4108,-543,-43,44,-118757,44079,72628,7,13310,851,-29667,402972,165,-719,2128,9486
1737,2524,2,27,-3,10,28,27,3,9,1,142,1742.000,-5.000,385235,17378,-244,-4100,-542,-46,46,-116686,44716,70968,7,13313,849,-29680,403091,165,-720,2128,9487
1737,2524,4,24,2,4,31,20,5,6,1,142,1742.000,-5.000,385235,17378,-244,-4100,-542,-46,46,-116686,44716,70968,7,13313,849,-29680,403091,165,-720,2128,9487
1738,2526,-6,3,-3,-14,24,-1,-11,-12,1,142,1742.000,-4.000,385235,17378,-244,-4100,-542,-46,46,-116686,44716,70968,7,13313,849,-29680,403091,165,-720,2128,9487
1738,2526,2,22,-2,1,58,18,7,-2,1,142,1742.000,-4.000,385235,17378,-244,-4100,-542,-46,46,-116686,44716,70968,7,13313,849,-29680,403091,165,-720,2128,9487
1759,2547,1,26,4,6,29,24,3,9,1,144,1764.000,-5.000,385257,17356,-260,-4078,-544,-37,41,-114564,45309,69254,7,13312,849,-29691,403212,165,-719,2128,9486
1759,2547,4,24,-1,13,33,20,5,6,1,144,1764.000,-5.000,385257,17356,-260,-4078,-544,-37,41,-114564,45309,69254,7,13312,849,-29691,403212,165,-719,2128,9486
1761,2548,-4,3,-2,-23,27,0,-9,-15,1,144,1764.000,-3.000,385257,17356,-260,-4078,-544,-37,41,-114564,45309,69254,7,13312,849,-29691,403212,165,-719,2128,9486
1761,2548,0,23,-2,0,60,20,8,-2,1,144,1764.000,-3.000,385257,17356,-260,-4078,-544,-37,41,-114564,45309,69254,7,13312,849,-29691,403212,165,-719,2128,9486
1774,2562,2,25,1,6,29,24,4,10,1,145,1775.000,-1.000,385268,17338,-252,-4114,-549,-45,42,-113484,45590,68379,7,13314,847,-29697,403272,165,-720,2128,9486
1774,2562,4,25,0,8,30,20,6,6,1,145,1775.000,-1.000,385268,17338,-252,-4114,-549,-45,42,-113484,45590,68379,7,13314,847,-29697,403272,165,-720,2128,9486
1776,2563,-5,2,1,-11,25,-2,-12,-15,1,145,1775.000,1.000,385268,17338,-252,-4114,-549,-45,42,-113484,45590,68379,7,13314,847,-29697,403272,165,-720,2128,9486
1776,2563,0,22,-3,2,55,17,7,-2,1,145,1775.000,1.000,385268,17338,-252,-4114,-549,-45,42,-113484,45590,68379,7,13314,847,-29697,403272,165,-720,2128,9486
1797,2585,1,25,7,-2,29,24,-2,5,1,147,1796.000,1.000,385290,17360,-270,-4052,-541,-46,46,-111289,46115,66593,7,13313,844,-29706,403395,165,-719,2127,9487
1797,2585,4,26,-4,4,31,22,8,5,1,147,1796.000,1.000,385290,17360,-270,-4052,-541,-46,46,-111289,46115,66593,7,13313,844,-29706,403395,165,-719,2127,9487
1798,2586,-3,2,-5,-12,27,0,-10,-18,1,147,1796.000,2.000,385290,17360,-270,-4052,-541,-46,46,-111289,46115,66593,7,13313,844,-29706,403395,165,-719,2127,9487
1798,2586,0,21,4,4,57,18,7,-2,1,147,1796.000,2.000,385290,17360,-270,-4052,-541,-46,46,-111289,46115,66593,7,13313,844,-29706,403395,165,-719,2127,9487
1811,2599,3,24,-4,12,28,25,2,9,1,148,1807.000,4.000,385301,17344,-246,-4088,-538,-44,40,-110174,46360,65682,7,13312,842,-29709,403456,165,-718,2126,9487
1811,2599,1,26,2,8,31,23,5,5,1,148,1807.000,4.000,385301,17344,-246,-4088,-538,-44,40,-110174,46360,65682,7,13312,842,-29709,403456,165,-718,2126,9487
1818,2605,-6,4,2,-9,28,2,-6,-16,1,149,1819.000,-1.000,385312,17362,-262,-4068,-539,-43,44,-109049,46592,64760,7,13309,842,-29715,403517,165,-717,2126,9487
1818,2605,0,21,-2,7,50,16,7,-3,1,149,1819.000,-1.000,385312,17362,-262,-4068,-539,-43,44,-109049,46592,64760,7,13309,842,-29715,403517,165,-717,2126,9487
1834,2622,0,23,-3,7,30,25,2,9,1,150,1829.000,5.000,385323,17360,-280,-4066,-538,-48,38,-107911,46812,63827,7,13307,843,-29723,403576,165,-716,2127,9487
1834,2622,3,26,2,14,29,23,4,6,1,150,1829.000,5.000,385323,17360,-280,-4066,-538,-48,38,-107911,46812,63827,7,13307,843,-29723,403576,165,-716,2127,9487
1836,2623,-8,3,-5,-11,29,-2,-8,-20,1,151,1840.000,-4.000,385334,17312,-308,-4152,-542,-48,45,-106764,47020,62884,7,13313,846,-29739,403635,165,-718,2128,9487
1836,2623,2,23,3,4,43,18,6,-2,1,151,1840.000,-4.000,385334,17312,-308,-4152,-542,-48,45,-106764,47020,62884,7,13313,846,-29739,403635,165,-718,2128,9487
1864,2652,4,22,0,3,26,23,4,8,1,153,1862.000,2.000,385356,17354,-320,-4086,-536,-44,47,-104441,47396,60969,7,13315,850,-29757,403753,165,-718,2129,9487
1864,2652,3,26,-2,8,30,24,4,7,1,153,1862.000,2.000,385356,17354,-320,-4086,-536,-44,47,-104441,47396,60969,7,13315,850,-29757,403753,165,-718,2129,9487
1866,2654,-7,6,0,-10,26,0,-11,-19,1,153,1862.000,4.000,385356,17354,-320,-4086,-536,-44,47,-104441,47396,60969,7,13315,850,-29757,403753,165,-718,2129,9487
1866,2654,3,20,-2,2,42,16,7,-3,1,153,1862.000,4.000,385356,17354,-320,-4086,-536,-44,47,-104441,47396,60969,7,13315,850,-29757,403753,165,-718,2129,9487
1871,2659,1,21,1,10,31,23,3,8,1,154,1873.000,-2.000,385367,17356,-252,-4112,-534,-43,41,-103266,47564,59997,7,13315,849,-29761,403810,165,-718,2129,9487
1871,2659,4,26,-3,2,27,23,5,5,1,154,1873.000,-2.000,385367,17356,-252,-4112,-534,-43,41,-103266,47564,59997,7,13315,849,-29761,403810,165,-718,2129,9487
1878,2665,-5,9,-3,-14,28,-1,-12,-20,1,154,1873.000,5.000,385367,17356,-252,-4112,-534,-43,41,-103266,47564,59997,7,13315,849,-29761,403810,165,-718,2129,9487
1878,2665,4,22,3,9,43,17,10,-2,1,154,1873.000,5.000,385367,17356,-252,-4112,-534,-43,41,-103266,47564,59997,7,13315,849,-29761,403810,165,-718,2129,9487
1894,2682,5,22,0,4,26,23,3,8,1,156,1895.000,-1.000,385389,17392,-268,-4070,-532,-44,43,-100891,47860,58030,7,13311,851,-29772,403925,165,-716,2129,9486
1894,2682,6,25,2,8,29,23,7,5,1,156,1895.000,-1.000,385389,17392,-268,-4070,-532,-44,43,-100891,47860,58030,7,13311,851,-29772,403925,165,-716,2129,9486
1896,2683,-6,11,-3,-12,26,3,-9,-18,1,156,1895.000,1.000,385389,17392,-268,-4070,-532,-44,43,-100891,47860,58030,7,13311,851,-29772,403925,165,-716,2129,9486
1896,2683,-1,20,2,2,50,17,8,-2,1,156,1895.000,1.000,385389,17392,-268,-4070,-532,-44,43,-100891,47860,58030,7,13311,851,-29772,403925,165,-716,2129,9486
1924,2712,1,21,-1,8,29,20,3,9,1,159,1928.000,-4.000,385422,17350,-308,-4114,-542,-53,44,-97292,48201,55042,7,13317,855,-29802,404092,166,-717,2131,9487
1924,2712,5,25,-1,12,28,23,4,4,1,159,1928.000,-4.000,385422,17350,-308,-4114,-542,-53,44,-97292,48201,55042,7,13317,855,-29802,404092,166,-717,2131,9487
1925,2714,-9,12,0,-12,28,6,-9,-23,1,159,1928.000,-3.000,385422,17350,-308,-4114,-542,-53,44,-97292,48201,55042,7,13317,855,-29802,404092,166,-717,2131,9487
1926,2714,0,20,-2,2,53,16,7,-3,1,159,1928.000,-2.000,385422,17350,-308,-4114,-542,-53,44,-97292,48201,55042,7,13317,855,-29802,404092,166,-717,2131,9487
1931,2718,2,20,3,7,29,20,1,10,1,159,1928.000,3.000,385422,17350,-308,-4114,-542,-53,44,-97292,48201,55042,7,13317,855,-29802,404092,166,-717,2131,9487
1931,2718,4,24,-1,13,25,22,0,4,1,159,1928.000,3.000,385422,17350,-308,-4114,-542,-53,44,-97292,48201,55042,7,13317,855,-29802,404092,166,-717,2131,9487
1938,2726,-5,14,-2,-9,26,8,-10,-23,1,160,1939.000,-1.000,385432,17354,-250,-4116,-542,-37,42,-96085,48287,54037,7,13318,853,-29807,404146,165,-718,2131,9487
1938,2726,2,27,3,1,59,17,8,-1,1,160,1939.000,-1.000,385432,17354,-250,-4116,-542,-37,42,-96085,48287,54037,7,13318,853,-29807,404146,165,-718,2131,9487
1954,2742,0,20,-3,3,29,19,4,9,1,161,1950.000,4.000,385443,17346,-288,-4100,-540,-43,45,-94872,48358,53028,7,13318,855,-29815,404200,165,-717,2131,9487
1954,2742,5,24,-1,6,25,21,1,4,1,161,1950.000,4.000,385443,17346,-288,-4100,-540,-43,45,-94872,48358,53028,7,13318,855,-29815,404200,165,-717,2131,9487
1956,2743,-5,16,-1,-14,27,10,-11,-20,1,162,1960.000,-4.000,385454,17366,-216,-4092,-533,-40,43,-93656,48415,52015,7,13317,851,-29812,404254,165,-717,2130,9487
1956,2743,0,27,-2,5,61,23,9,-3,1,162,1960.000,-4.000,385454,17366,-216,-4092,-533,-40,43,-93656,48415,52015,7,13317,851,-29812,404254,165,-717,2130,9487
1976,2763,2,20,-1,13,31,19,3,11,1,163,1971.000,5.000,385465,17338,-276,-4142,-534,-48,47,-92437,48457,50999,7,13321,852,-29822,404311,165,-718,2130,9487
1976,2763,2,25,2,3,29,21,1,4,1,163,1971.000,5.000,385465,17338,-276,-4142,-534,-48,47,-92437,48457,50999,7,13321,852,-29822,404311,165,-718,2130,9487
1984,2772,-6,15,-3,-19,26,12,-7,-23,1,164,1982.000,2.000,385476,17338,-260,-4182,-540,-42,45,-91215,48486,49981,7,13327,851,-29833,404368,165,-720,2130,9487
1984,2772,2,32,6,10,60,25,9,-2,1,164,1982.000,2.000,385476,17338,-260,-4182,-540,-42,45,-91215,48486,49981,7,13327,851,-29833,404368,165,-720,2130,9487
1991,2779,3,21,-2,3,32,18,1,10,1,165,1993.000,-2.000,385487,17328,-264,-4170,-543,-41,47,-89991,48501,48961,7,13333,851,-29844,404425,165,-722,2130,9488
1991,2779,2,24,0,12,23,21,4,3,1,165,1993.000,-2.000,385487,17328,-264,-4170,-543,-41,47,-89991,48501,48961,7,13333,851,-29844,404425,165,-722,2130,9488
1998,2785,-8,17,-1,-12,24,13,-11,-21,1,165,1993.000,5.000,385487,17328,-264,-4170,-543,-41,47,-89991,48501,48961,7,13333,851,-29844,404425,165,-722,2130,9488
1998,2785,3,40,-1,6,65,30,8,-2,1,165,1993.000,5.000,385487,17328,-264,-4170,-543,-41,47,-89991,48501,48961,7,13333,851,-29844,404425,165,-722,2130,9488
2014,2802,2,22,-2,7,34,19,2,8,1,167,2015.000,-1.000,385509,17374,-244,-4070,-544,-36,49,-87540,48487,46919,7,13327,848,-29850,404539,166,-719,2130,9488
2014,2802,2,24,3,11,19,21,1,4,1,167,2015.000,-1.000,385509,17374,-244,-4070,-544,-36,49,-87540,48487,46919,7,13327,848,-29850,404539,166,-719,2130,9488
2015,2803,-7,18,-2,-12,26,14,-10,-25,1,167,2015.000,0.000,385509,17374,-244,-4070,-544,-36,49,-87540,48487,46919,7,13327,848,-29850,404539,166,-719,2130,9488
2016,2803,3,35,0,3,50,28,3,-2,1,167,2015.000,1.000,385509,17374,-244,-4070,-544,-36,49,-87540,48487,46919,7,13327,848,-29850,404539,166,-719,2130,9488
2036,2824,3,21,1,6,31,19,4,10,1,169,2037.000,-1.000,385530,17378,-262,-4110,-538,-47,43,-85090,48414,44880,7,13321,846,-29856,404657,165,-717,2129,9487
2037,2824,2,25,-4,6,20,22,2,3,1,169,2037.000,0.000,385530,17378,-262,-4110,-538,-47,43,-85090,48414,44880,7,13321,846,-29856,404657,165,-717,2129,9487
2038,2826,-3,18,-2,-20,24,14,-7,-21,1,169,2037.000,1.000,385530,17378,-262,-4110,-538,-47,43,-85090,48414,44880,7,13321,846,-29856,404657,165,-717,2129,9487
2038,2826,0,33,-1,7,49,25,7,-1,1,169,2037.000,1.000,385530,17378,-262,-4110,-538,-47,43,-85090,48414,44880,7,13321,846,-29856,404657,165,-717,2129,9487
2051,2838,4,21,2,0,33,18,1,7,1,170,2047.000,4.000,385541,17358,-264,-4098,-539,-38,44,-83867,48357,43863,7,13320,846,-29862,404715,165,-717,2129,9487
2051,2838,2,25,-1,10,17,22,0,4,1,170,2047.000,4.000,385541,17358,-264,-4098,-539,-38,44,-83867,48357,43863,7,13320,846,-29862,404715,165,-717,2129,9487
2059,2847,-5,19,0,-12,25,15,-10,-21,1,171,2058.000,1.000,385552,17336,-278,-4070,-539,-39,55,-82648,48285,42850,7,13318,848,-29869,404774,165,-716,2129,9487
2059,2847,2,33,1,6,55,28,5,-1,1,171,2058.000,1.000,385552,17336,-278,-4070,-539,-39,55,-82648,48285,42850,7,13318,848,-29869,404774,165,-716,2129,9487
2074,2863,1,21,2,5,32,19,2,11,1,172,2069.000,5.000,385563,17362,-262,-4086,-539,-36,41,-81430,48199,41839,7,13316,848,-29874,404831,165,-715,2129,9487
2074,2863,3,24,4,8,22,21,1,3,1,172,2069.000,5.000,385563,17362,-262,-4086,-539,-36,41,-81430,48199,41839,7,13316,848,-29874,404831,165,-715,2129,9487
2075,2864,-6,18,1,-9,23,16,-8,-19,1,173,2080.000,-5.000,385574,17368,-288,-4078,-534,-39,40,-80217,48097,40832,7,13313,849,-29883,404888,165,-714,2130,9487
2075,2864,4,35,-3,4,45,30,7,-1,1,173,2080.000,-5.000,385574,17368,-288,-4078,-534,-39,40,-80217,48097,40832,7,13313,849,-29883,404888,165,-714,2130,9487
2096,2884,2,20,-1,5,32,18,4,11,1,174,2091.000,5.000,385585,17344,-254,-4200,-543,-38,43,-79008,47983,39830,7,13321,848,-29892,404944,165,-717,2130,9487
2097,2884,1,25,-3,2,17,22,0,3,1,175,2102.000,-5.000,385596,17362,-268,-4126,-538,-42,45,-77804,47854,38835,7,13323,848,-29899,405002,166,-717,2130,9488
2098,2886,-6,18,-2,-9,24,15,-7,-18,1,175,2102.000,-4.000,385596,17362,-268,-4126,-538,-42,45,-77804,47854,38835,7,13323,848,-29899,405002,166,-717,2130,9488
2098,2886,2,35,-1,8,43,30,10,-1,1,175,2102.000,-4.000,385596,17362,-268,-4126,-538,-42,45,-77804,47854,38835,7,13323,848,-29899,405002,166,-717,2130,9488
2111,2899,1,21,2,7,30,19,2,9,1,176,2113.000,-2.000,385607,17368,-238,-4078,-532,-42,38,-76605,47711,37845,7,13320,846,-29899,405060,166,-716,2129,9487
2111,2899,2,23,2,7,19,22,-3,4,1,176,2113.000,-2.000,385607,17368,-238,-4078,-532,-42,38,-76605,47711,37845,7,13320,846,-29899,405060,166,-716,2129,9487
2119,2907,-6,19,-1,-8,25,16,-11,-20,1,177,2124.000,-5.000,385617,17396,-234,-4092,-544,-40,42,-75413,47555,36862,7,13318,843,-29901,405119,165,-716,2128,9487
2119,2907,3,34,0,5,47,28,7,0,1,177,2124.000,-5.000,385617,17396,-234,-4092,-544,-40,42,-75413,47555,36862,7,13318,843,-29901,405119,165,-716,2128,9487
2134,2922,1,20,-3,5,31,18,1,8,1,178,2134.000,0.000,385628,17374,-258,-4158,-538,-46,44,-74228,47384,35887,7,13323,842,-29906,405178,165,-717,2128,9487
2134,2922,2,22,3,4,19,20,-1,4,1,178,2134.000,0.000,385628,17374,-258,-4158,-538,-46,44,-74228,47384,35887,7,13323,842,-29906,405178,165,-717,2128,9487
2136,2923,-4,18,2,-14,24,15,-9,-20,1,178,2134.000,2.000,385628,17374,-258,-4158,-538,-46,44,-74228,47384,35887,7,13323,842,-29906,405178,165,-717,2128,9487
2136,2923,3,33,0,5,43,27,6,-2,1,178,2134.000,2.000,385628,17374,-258,-4158,-538,-46,44,-74228,47384,35887,7,13323,842,-29906,405178,165,-717,2128,9487
2156,2944,0,20,-1,9,30,18,3,9,1,180,2156.000,0.000,385650,17310,-286,-4154,-541,-38,40,-71880,47004,33961,7,13331,845,-29924,405299,165,-719,2129,9487
2156,2944,2,21,1,8,21,20,-2,3,1,180,2156.000,0.000,385650,17310,-286,-4154,-541,-38,40,-71880,47004,33961,7,13331,845,-29924,405299,165,-719,2129,9487
2158,2947,-6,18,3,-11,24,16,-8,-21,1,180,2156.000,2.000,385650,17310,-286,-4154,-541,-38,40,-71880,47004,33961,7,13331,845,-29924,405299,165,-719,2129,9487
2158,2947,1,33,0,7,40,28,6,0,1,180,2156.000,2.000,385650,17310,-286,-4154,-541,-38,40,-71880,47004,33961,7,13331,845,-29924,405299,165,-719,2129,9487
2170,2959,2,20,1,8,32,18,2,10,1,181,2167.000,3.000,385661,17330,-264,-4102,-540,-43,43,-70719,46794,33012,7,13331,844,-29930,405360,165,-719,2129,9487
2170,2959,1,20,-1,9,15,19,-2,4,1,181,2167.000,3.000,385661,17330,-264,-4102,-540,-43,43,-70719,46794,33012,7,13331,844,-29930,405360,165,-719,2129,9487
2179,2968,-6,19,-3,-11,24,15,-9,-18,1,182,2178.000,1.000,385672,17366,-260,-4078,-543,-42,41,-69566,46570,32072,7,13328,844,-29936,405422,165,-718,2129,9487
2179,2968,2,33,1,9,40,28,2,-1,1,182,2178.000,1.000,385672,17366,-260,-4078,-543,-42,41,-69566,46570,32072,7,13328,844,-29936,405422,165,-718,2129,9487
2194,2983,2,20,3,9,30,17,1,10,1,183,2189.000,5.000,385683,17376,-272,-4162,-539,-37,46,-68424,46334,31143,7,13332,844,-29944,405483,166,-719,2129,9487
2194,2983,3,20,-2,-4,18,19,-2,3,1,183,2189.000,5.000,385683,17376,-272,-4162,-539,-37,46,-68424,46334,31143,7,13332,844,-29944,405483,166,-719,2129,9487
2196,2984,-7,19,-1,-9,22,16,-8,-19,1,184,2200.000,-4.000,385694,17340,-272,-4114,-540,-42,45,-67291,46084,30224,7,13333,845,-29951,405545,166,-719,2129,9487
2196,2984,1,39,-1,5,38,27,7,-1,1,184,2200.000,-4.000,385694,17340,-272,-4114,-540,-42,45,-67291,46084,30224,7,13333,845,-29951,405545,166,-719,2129,9487
2216,3005,1,21,0,4,33,17,0,10,1,185,2211.000,5.000,385704,17410,-266,-4110,-538,-41,47,-66169,45823,29317,7,13332,845,-29957,405606,165,-719,2129,9487
2217,3005,-1,21,-4,7,16,18,-3,4,1,186,2221.000,-4.000,385715,17362,-248,-4110,-537,-46,42,-65056,45548,28421,7,13332,844,-29961,405668,165,-719,2129,9487
2218,3006,-6,18,-4,-16,22,15,-7,-19,1,186,2221.000,-3.000,385715,17362,-248,-4110,-537,-46,42,-65056,45548,28421,7,13332,844,-29961,405668,165,-719,2129,9487
2218,3006,2,39,3,8,35,32,5,0,1,186,2221.000,-3.000,385715,17362,-248,-4110,-537,-46,42,-65056,45548,28421,7,13332,844,-29961,405668,165,-719,2129,9487
2230,3019,2,22,-1,6,32,18,5,10,1,187,2232.000,-2.000,385726,17334,-260,-4114,-538,-48,47,-63954,45262,27536,7,13334,844,-29967,405729,165,-719,2129,9487
2230,3019,0,21,3,5,10,18,-5,3,1,187,2232.000,-2.000,385726,17334,-260,-4114,-538,-48,47,-63954,45262,27536,7,13334,844,-29967,405729,165,-719,2129,9487
2239,3026,-4,18,-4,-13,22,16,-9,-18,1,188,2243.000,-4.000,385737,17346,-254,-4116,-543,-43,40,-62863,44964,26663,7,13335,842,-29973,405791,165,-719,2129,9487
2239,3026,2,40,-1,4,35,34,1,1,1,188,2243.000,-4.000,385737,17346,-254,-4116,-543,-43,40,-62863,44964,26663,7,13335,842,-29973,405791,165,-719,2129,9487
2262,3049,3,22,1,2,32,18,-1,7,1,190,2265.000,-3.000,385759,17364,-316,-4144,-545,-38,45,-60716,44334,24953,7,13336,847,-29993,405915,165,-720,2130,9487
2262,3049,2,20,1,5,4,18,-5,3,1,190,2265.000,-3.000,385759,17364,-316,-4144,-545,-38,45,-60716,44334,24953,7,13336,847,-29993,405915,165,-720,2130,9487
2263,3050,-7,18,-3,-12,23,15,-6,-18,1,190,2265.000,-2.000,385759,17364,-316,-4144,-545,-38,45,-60716,44334,24953,7,13336,847,-29993,405915,165,-720,2130,9487
2263,3050,5,43,3,13,37,35,5,1,1,190,2265.000,-2.000,385759,17364,-316,-4144,-545,-38,45,-60716,44334,24953,7,13336,847,-29993,405915,165,-720,2130,9487
2284,3072,2,22,-2,0,33,19,1,9,1,192,2287.000,-3.000,385781,17356,-282,-4106,-531,-40,42,-58616,43657,23296,7,13335,850,-30006,406036,166,-719,2132,9486
2284,3072,1,18,1,3,7,17,-6,4,1,192,2287.000,-3.000,385781,17356,-282,-4106,-531,-40,42,-58616,43657,23296,7,13335,850,-30006,406036,166,-719,2132,9486
2286,3074,-8,19,-1,-7,23,16,-8,-18,1,192,2287.000,-1.000,385781,17356,-282,-4106,-531,-40,42,-58616,43657,23296,7,13335,850,-30006,406036,166,-719,2132,9486
2286,3074,1,39,0,2,34,33,4,1,1,192,2287.000,-1.000,385781,17356,-282,-4106,-531,-40,42,-58616,43657,23296,7,13335,850,-30006,406036,166,-719,2132,9486
2290,3079,1,22,-2,14,30,19,2,9,1,192,2287.000,3.000,385781,17356,-282,-4106,-531,-40,42,-58616,43657,23296,7,13335,850,-30006,406036,166,-719,2132,9486
2290,3079,1,17,-1,-6,-4,16,-7,3,1,192,2287.000,3.000,385781,17356,-282,-4106,-531,-40,42,-58616,43657,23296,7,13335,850,-30006,406036,166,-719,2132,9486
2299,3087,-5,18,-3,-13,23,15,-7,-18,1,193,2298.000,1.000,385791,17294,-266,-4110,-537,-42,45,-57584,43302,22487,7,13336,851,-30013,406095,165,-719,2132,9487
2299,3087,3,40,0,5,37,40,4,3,1,193,2298.000,1.000,385791,17294,-266,-4110,-537,-42,45,-57584,43302,22487,7,13336,851,-30013,406095,165,-719,2132,9487
2314,3102,2,23,2,9,31,19,2,7,1,195,2319.000,-5.000,385813,17352,-284,-4086,-536,-34,42,-55556,42561,20907,7,13330,852,-30022,406215,165,-717,2132,9486
2314,3102,-2,14,-5,-9,11,14,-5,4,1,195,2319.000,-5.000,385813,17352,-284,-4086,-536,-34,42,-55556,42561,20907,7,13330,852,-30022,406215,165,-717,2132,9486
2316,3103,-6,17,1,-6,24,16,-6,-16,1,195,2319.000,-3.000,385813,17352,-284,-4086,-536,-34,42,-55556,42561,20907,7,13330,852,-30022,406215,165,-717,2132,9486
2316,3103,3,39,-2,4,35,34,2,3,1,195,2319.000,-3.000,385813,17352,-284,-4086,-536,-34,42,-55556,42561,20907,7,13330,852,-30022,406215,165,-717,2132,9486
2336,3125,2,23,-1,6,32,20,0,10,1,197,2341.000,-5.000,385835,17370,-242,-4102,-541,-41,39,-53577,41780,19381,7,13328,848,-30026,406334,165,-716,2131,9486
2336,3125,2,13,0,5,9,12,-5,4,1,197,2341.000,-5.000,385835,17370,-242,-4102,-541,-41,39,-53577,41780,19381,7,13328,848,-30026,406334,165,-716,2131,9486
2338,3126,-6,17,-2,-15,23,14,-8,-14,1,197,2341.000,-3.000,385835,17370,-242,-4102,-541,-41,39,-53577,41780,19381,7,13328,848,-30026,406334,165,-716,2131,9486
2338,3126,3,38,-2,4,37,35,3,2,1,197,2341.000,-3.000,385835,17370,-242,-4102,-541,-41,39,-53577,41780,19381,7,13328,848,-30026,406334,165,-716,2131,9486
2350,3139,1,23,-1,1,31,20,1,10,1,198,2352.000,-2.000,385846,17384,-230,-4074,-536,-40,44,-52606,41374,18639,7,13325,845,-30025,406394,165,-715,2130,9485
2350,3139,-2,13,2,5,10,11,-4,3,1,198,2352.000,-2.000,385846,17384,-230,-4074,-536,-40,44,-52606,41374,18639,7,13325,845,-30025,406394,165,-715,2130,9485
2365,3153,-7,17,-3,-16,25,15,-6,-12,1,199,2363.000,2.000,385857,17340,-256,-4088,-543,-45,44,-51646,40960,17909,7,13324,844,-30029,406453,165,-715,2129,9485
2365,3153,2,39,2,5,31,39,3,1,1,199,2363.000,2.000,385857,17340,-256,-4088,-543,-45,44,-51646,40960,17909,7,13324,844,-30029,406453,165,-715,2129,9485
2374,3162,2,23,1,6,30,21,2,6,1,200,2374.000,0.000,385868,17306,-256,-4092,-549,-43,47,-50698,40536,17192,7,13324,843,-30035,406511,169,-715,2129,9485
2374,3162,0,10,-3,3,-1,9,-7,4,1,200,2374.000,0.000,385868,17306,-256,-4092,-549,-43,47,-50698,40536,17192,7,13324,843,-30035,406511,169,-715,2129,9485
2375,3164,-6,17,3,-17,26,14,-4,-12,1,200,2374.000,1.000,385868,17306,-256,-4092,-549,-43,47,-50698,40536,17192,7,13324,843,-30035,406511,169,-715,2129,9485
2376,3164,1,40,4,14,31,34,4,2,1,200,2374.000,2.000,385868,17306,-256,-4092,-549,-43,47,-50698,40536,17192,7,13324,843,-30035,406511,169,-715,2129,9485
2396,3185,1,22,-2,8,28,19,3,8,1,202,2395.000,1.000,385889,17354,-254,-4212,-541,-42,46,-48839,39662,15800,7,13332,841,-30043,406627,165,-717,2128,9485
2396,3185,-1,10,-1,-3,1,10,-7,4,1,202,2395.000,1.000,385889,17354,-254,-4212,-541,-42,46,-48839,39662,15800,7,13332,841,-30043,406627,165,-717,2128,9485
2398,3186,-5,16,-3,-11,25,15,-6,-10,1,202,2395.000,3.000,385889,17354,-254,-4212,-541,-42,46,-48839,39662,15800,7,13332,841,-30043,406627,165,-717,2128,9485
2398,3186,1,37,-2,2,32,32,2,4,1,202,2395.000,3.000,385889,17354,-254,-4212,-541,-42,46,-48839,39662,15800,7,13332,841,-30043,406627,165,-717,2128,9485
2410,3198,1,23,0,5,29,21,1,7,1,203,2406.000,4.000,385900,17306,-302,-4068,-542,-51,52,-47926,39212,15124,7,13331,845,-30055,406687,165,-716,2130,9485
2410,3198,-1,9,2,4,-5,8,-8,3,1,203,2406.000,4.000,385900,17306,-302,-4068,-542,-51,52,-47926,39212,15124,7,13331,845,-30055,406687,165,-716,2130,9485
2419,3207,-7,16,-1,-4,25,14,-6,-9,1,204,2417.000,2.000,385911,17342,-284,-4126,-548,-49,47,-47026,38755,14461,7,13333,847,-30065,406747,165,-716,2130,9485
2419,3207,4,36,5,4,31,34,4,2,1,204,2417.000,2.000,385911,17342,-284,-4126,-548,-49,47,-47026,38755,14461,7,13333,847,-30065,406747,165,-716,2130,9485
2434,3222,2,22,-1,7,29,19,1,12,1,206,2439.000,-5.000,385933,17322,-270,-4096,-533,-41,46,-45261,37813,13176,7,13332,848,-30078,406868,165,-716,2131,9485
2434,3222,-3,8,-2,-3,4,9,-8,4,1,206,2439.000,-5.000,385933,17322,-270,-4096,-533,-41,46,-45261,37813,13176,7,13332,848,-30078,406868,165,-716,2131,9485
2436,3224,-5,16,-5,-13,24,13,-6,-10,1,206,2439.000,-3.000,385933,17322,-270,-4096,-533,-41,46,-45261,37813,13176,7,13332,848,-30078,406868,165,-716,2131,9485
2436,3224,2,39,-4,6,31,30,4,3,1,206,2439.000,-3.000,385933,17322,-270,-4096,-533,-41,46,-45261,37813,13176,7,13332,848,-30078,406868,165,-716,2131,9485
2457,3245,0,22,-1,4,29,20,1,10,1,208,2461.000,-4.000,385955,17336,-236,-4050,-535,-50,50,-43541,36841,11943,7,13331,845,-30083,406989,166,-715,2129,9485
2457,3245,-2,11,-1,-5,-6,8,-9,4,1,208,2461.000,-4.000,385955,17336,-236,-4050,-535,-50,50,-43541,36841,11943,7,13331,845,-30083,406989,166,-715,2129,9485
2458,3246,-6,17,-2,-9,24,14,-3,-8,1,208,2461.000,-3.000,385955,17336,-236,-4050,-535,-50,50,-43541,36841,11943,7,13331,845,-30083,406989,166,-715,2129,9485
2458,3246,3,36,0,8,31,35,4,2,1,208,2461.000,-3.000,385955,17336,-236,-4050,-535,-50,50,-43541,36841,11943,7,13331,845,-30083,406989,166,-715,2129,9485
2479,3267,2,23,3,3,28,20,-3,7,1,210,2482.000,-3.000,385976,17378,-290,-4158,-539,-38,44,-41867,35839,10760,7,13331,846,-30098,407105,165,-714,2130,9485
2479,3267,0,10,-5,-4,1,8,-9,4,1,210,2482.000,-3.000,385976,17378,-290,-4158,-539,-38,44,-41867,35839,10760,7,13331,846,-30098,407105,165,-714,2130,9485
2480,3268,-6,15,-2,-10,25,14,-6,-10,1,210,2482.000,-2.000,385976,17378,-290,-4158,-539,-38,44,-41867,35839,10760,7,13331,846,-30098,407105,165,-714,2130,9485
2481,3268,2,38,0,2,27,30,2,2,1,210,2482.000,-1.000,385976,17378,-290,-4158,-539,-38,44,-41867,35839,10760,7,13331,846,-30098,407105,165,-714,2130,9485
2494,3282,1,22,2,6,28,19,5,10,1,211,2493.000,1.000,385987,17368,-270,-4124,-539,-41,42,-41045,35328,10187,7,13332,846,-30106,407164,165,-715,2130,9485
2494,3282,-1,10,-3,-5,9,8,-3,4,1,211,2493.000,1.000,385987,17368,-270,-4124,-539,-41,42,-41045,35328,10187,7,13332,846,-30106,407164,165,-715,2130,9485
2495,3283,-5,16,-4,-13,26,14,-3,-7,1,211,2493.000,2.000,385987,17368,-270,-4124,-539,-41,42,-41045,35328,10187,7,13332,846,-30106,407164,165,-715,2130,9485
2496,3283,3,38,5,15,34,32,4,1,1,211,2493.000,3.000,385987,17368,-270,-4124,-539,-41,42,-41045,35328,10187,7,13332,846,-30106,407164,165,-715,2130,9485
2517,3304,1,24,0,9,30,20,1,10,1,213,2515.000,2.000,386009,17326,-272,-4162,-548,-48,45,-39438,34290,9081,7,13333,849,-30127,407280,165,-714,2131,9485
2517,3304,-3,10,2,3,-6,8,-8,3,1,213,2515.000,2.000,386009,17326,-272,-4162,-548,-48,45,-39438,34290,9081,7,13333,849,-30127,407280,165,-714,2131,9485
2518,3306,-6,16,-1,-9,25,12,-4,-9,1,213,2515.000,3.000,386009,17326,-272,-4162,-548,-48,45,-39438,34290,9081,7,13333,849,-30127,407280,165,-714,2131,9485
2518,3306,0,38,-3,-2,30,35,5,7,1,213,2515.000,3.000,386009,17326,-272,-4162,-548,-48,45,-39438,34290,9081,7,13333,849,-30127,407280,165,-714,2131,9485
2539,3327,2,23,4,7,30,20,3,10,1,215,2537.000,2.000,386030,17318,-224,-4054,-539,-38,49,-37880,33231,8029,7,13326,849,-30131,407395,165,-712,2131,9484
2539,3327,-3,5,0,-5,-3,9,-6,4,1,215,2537.000,2.000,386030,17318,-224,-4054,-539,-38,49,-37880,33231,8029,7,13326,849,-30131,407395,165,-712,2131,9484
2541,3329,-3,16,0,-8,25,14,-4,-8,1,215,2537.000,4.000,386030,17318,-224,-4054,-539,-38,49,-37880,33231,8029,7,13326,849,-30131,407395,165,-712,2131,9484
2541,3329,1,32,-2,7,31,32,2,5,1,215,2537.000,4.000,386030,17318,-224,-4054,-539,-38,49,-37880,33231,8029,7,13326,849,-30131,407395,165,-712,2131,9484
2554,3343,2,24,0,5,31,21,1,8,1,217,2558.000,-4.000,386052,17336,-280,-4168,-541,-40,42,-36359,32148,7022,7,13324,849,-30144,407502,165,-711,2131,9484
2554,3343,-2,-1,-2,-12,-9,2,-9,2,1,217,2558.000,-4.000,386052,17336,-280,-4168,-541,-40,42,-36359,32148,7022,7,13324,849,-30144,407502,165,-711,2131,9484
2556,3344,-7,17,0,-6,24,14,-5,-8,1,217,2558.000,-2.000,386052,17336,-280,-4168,-541,-40,42,-36359,32148,7022,7,13324,849,-30144,407502,165,-711,2131,9484
2556,3344,1,37,-3,7,31,31,0,6,1,217,2558.000,-2.000,386052,17336,-280,-4168,-541,-40,42,-36359,32148,7022,7,13324,849,-30144,407502,165,-711,2131,9484
2577,3365,2,23,-3,2,30,20,1,9,1,219,2580.000,-3.000,386074,17348,-252,-4056,-540,-41,40,-34874,31041,6061,7,13315,849,-30151,407608,166,-708,2131,9483
2577,3365,-3,-3,-1,-5,-7,-2,-8,2,1,219,2580.000,-3.000,386074,17348,-252,-4056,-540,-41,40,-34874,31041,6061,7,13315,849,-30151,407608,166,-708,2131,9483
2578,3366,-5,17,-2,-8,24,14,-3,-6,1,219,2580.000,-2.000,386074,17348,-252,-4056,-540,-41,40,-34874,31041,6061,7,13315,849,-30151,407608,166,-708,2131,9483
2578,3366,4,33,1,9,30,34,0,8,1,219,2580.000,-2.000,386074,17348,-252,-4056,-540,-41,40,-34874,31041,6061,7,13315,849,-30151,407608,166,-708,2131,9483
2590,3378,0,23,-4,4,30,20,4,9,1,220,2590.000,0.000,386084,17324,-266,-4050,-530,-41,43,-34145,30480,5598,7,13312,849,-30154,407657,165,-706,2131,9483
2590,3378,-2,-8,1,0,1,-9,-10,2,1,220,2590.000,0.000,386084,17324,-266,-4050,-530,-41,43,-34145,30480,5598,7,13312,849,-30154,407657,165,-706,2131,9483
2607,3395,-5,16,1,-4,26,14,0,-5,1,222,2612.000,-5.000,386106,17358,-252,-4052,-539,-46,47,-32713,29343,4702,7,13313,847,-30157,407753,165,-707,2130,9483
2607,3395,1,34,-1,7,31,34,3,6,1,222,2612.000,-5.000,386106,17358,-252,-4052,-539,-46,47,-32713,29343,4702,7,13313,847,-30157,407753,165,-707,2130,9483
2614,3402,4,23,2,3,28,21,2,8,1,222,2612.000,2.000,386106,17358,-252,-4052,-539,-46,47,-32713,29343,4702,7,13313,847,-30157,407753,165,-707,2130,9483
2614,3402,-2,-6,1,-5,-2,-6,-10,1,1,222,2612.000,2.000,386106,17358,-252,-4052,-539,-46,47,-32713,29343,4702,7,13313,847,-30157,407753,165,-707,2130,9483
2616,3404,-5,16,-1,-3,25,13,-1,-4,1,222,2612.000,4.000,386106,17358,-252,-4052,-539,-46,47,-32713,29343,4702,7,13313,847,-30157,407753,165,-707,2130,9483
2616,3404,1,30,1,5,30,32,2,4,1,222,2612.000,4.000,386106,17358,-252,-4052,-539,-46,47,-32713,29343,4702,7,13313,847,-30157,407753,165,-707,2130,9483
2637,3424,2,22,0,6,30,21,3,11,1,224,2634.000,3.000,386128,17376,-242,-4178,-540,-48,45,-31312,28188,3849,7,13318,847,-30174,407849,166,-708,2130,9483
2637,3424,-3,-8,2,-10,8,-13,-9,0,1,224,2634.000,3.000,386128,17376,-242,-4178,-540,-48,45,-31312,28188,3849,7,13318,847,-30174,407849,166,-708,2130,9483
2638,3427,-3,16,1,-5,25,13,-1,-2,1,224,2634.000,4.000,386128,17376,-242,-4178,-540,-48,45,-31312,28188,3849,7,13318,847,-30174,407849,166,-708,2130,9483
2638,3427,3,35,2,1,28,32,4,8,1,224,2634.000,4.000,386128,17376,-242,-4178,-540,-48,45,-31312,28188,3849,7,13318,847,-30174,407849,166,-708,2130,9483
2659,3447,3,22,-1,5,29,19,2,9,1,226,2655.000,4.000,386149,17350,-244,-4046,-535,-48,44,-29942,27013,3036,7,13311,848,-30183,407950,165,-705,2130,9483
2659,3447,-5,-6,-5,-7,5,-11,-10,1,1,226,2655.000,4.000,386149,17350,-244,-4046,-535,-48,44,-29942,27013,3036,7,13311,848,-30183,407950,165,-705,2130,9483
2661,3449,-3,16,-1,-6,25,14,-2,-3,1,227,2666.000,-5.000,386160,17348,-284,-4050,-536,-42,41,-29268,26419,2645,7,13307,849,-30194,407995,165,-703,2131,9483
2661,3449,1,31,3,2,30,30,3,5,1,227,2666.000,-5.000,386160,17348,-284,-4050,-536,-42,41,-29268,26419,2645,7,13307,849,-30194,407995,165,-703,2131,9483
2674,3462,2,21,-2,9,30,19,1,10,1,228,2677.000,-3.000,386171,17314,-312,-4080,-536,-44,49,-28600,25821,2263,7,13307,854,-30216,408038,165,-703,2133,9484
2674,3462,-4,-7,0,-5,10,-10,-8,1,1,228,2677.000,-3.000,386171,17314,-312,-4080,-536,-44,49,-28600,25821,2263,7,13307,854,-30216,408038,165,-703,2133,9484
2675,3463,-3,17,-2,-5,25,13,2,-3,1,228,2677.000,-2.000,386171,17314,-312,-4080,-536,-44,49,-28600,25821,2263,7,13307,854,-30216,408038,165,-703,2133,9484
2676,3463,3,33,0,5,29,33,5,7,1,228,2677.000,-1.000,386171,17314,-312,-4080,-536,-44,49,-28600,25821,2263,7,13307,854,-30216,408038,165,-703,2133,9484
2696,3484,2,21,1,9,29,19,1,8,1,230,2698.000,-2.000,386192,17348,-282,-4146,-545,-46,41,-27286,24615,1527,7,13307,852,-30222,408122,165,-703,2132,9483
2697,3484,-6,-4,-2,-7,7,-6,-9,-1,1,230,2698.000,-1.000,386192,17348,-282,-4146,-545,-46,41,-27286,24615,1527,7,13307,852,-30222,408122,165,-703,2132,9483
2698,3486,-4,17,-2,-4,31,13,0,-2,1,230,2698.000,0.000,386192,17348,-282,-4146,-545,-46,41,-27286,24615,1527,7,13307,852,-30222,408122,165,-703,2132,9483
2698,3486,1,29,-2,-1,29,30,4,7,1,230,2698.000,0.000,386192,17348,-282,-4146,-545,-46,41,-27286,24615,1527,7,13307,852,-30222,408122,165,-703,2132,9483
2726,3515,2,21,-3,8,31,19,3,9,1,233,2731.000,-5.000,386225,17344,-254,-4134,-532,-38,40,-25369,22781,498,7,13314,851,-30242,408259,166,-705,2132,9484
2726,3515,-3,-7,-1,-6,8,-9,-11,-1,1,233,2731.000,-5.000,386225,17344,-254,-4134,-532,-38,40,-25369,22781,498,7,13314,851,-30242,408259,166,-705,2132,9484
2728,3516,-2,16,0,-4,34,14,1,-2,1,233,2731.000,-3.000,386225,17344,-254,-4134,-532,-38,40,-25369,22781,498,7,13314,851,-30242,408259,166,-705,2132,9484
2728,3516,1,34,-1,9,29,30,2,6,1,233,2731.000,-3.000,386225,17344,-254,-4134,-532,-38,40,-25369,22781,498,7,13314,851,-30242,408259,166,-705,2132,9484
2734,3522,3,21,2,4,32,18,4,7,1,233,2731.000,3.000,386225,17344,-254,-4134,-532,-38,40,-25369,22781,498,7,13314,851,-30242,408259,166,-705,2132,9484
2734,3522,-5,-6,-2,-10,5,-4,-9,-2,1,233,2731.000,3.000,386225,17344,-254,-4134,-532,-38,40,-25369,22781,498,7,13314,851,-30242,408259,166,-705,2132,9484
2736,3523,-3,16,1,-4,35,14,2,-2,1,233,2731.000,5.000,386225,17344,-254,-4134,-532,-38,40,-25369,22781,498,7,13314,851,-30242,408259,166,-705,2132,9484
2736,3523,1,31,-3,5,30,29,2,9,1,233,2731.000,5.000,386225,17344,-254,-4134,-532,-38,40,-25369,22781,498,7,13314,851,-30242,408259,166,-705,2132,9484
2757,3545,2,21,3,7,31,18,3,8,1,235,2752.000,5.000,386246,17350,-262,-4152,-542,-45,43,-24126,21551,-139,7,13321,847,-30245,408362,165,-707,2131,9484
2757,3545,-3,-3,1,-8,9,-2,-6,-1,1,235,2752.000,5.000,386246,17350,-262,-4152,-542,-45,43,-24126,21551,-139,7,13321,847,-30245,408362,165,-707,2131,9484
2758,3547,-2,17,0,-4,39,14,2,-2,1,236,2763.000,-5.000,386257,17350,-280,-4082,-543,-50,40,-23506,20925,-448,7,13320,848,-30254,408416,165,-706,2131,9484
2758,3547,0,31,1,4,30,28,4,10,1,236,2763.000,-5.000,386257,17350,-280,-4082,-543,-50,40,-23506,20925,-448,7,13320,848,-30254,408416,165,-706,2131,9484
2787,3575,2,21,-3,7,32,18,3,7,1,238,2784.000,3.000,386278,17360,-282,-4172,-535,-38,44,-22287,19666,-1039,7,13327,849,-30273,408526,165,-708,2132,9484
2787,3575,-4,-5,-2,-5,9,-3,-14,-1,1,238,2784.000,3.000,386278,17360,-282,-4172,-535,-38,44,-22287,19666,-1039,7,13327,849,-30273,408526,165,-708,2132,9484
2788,3576,-3,17,-2,-3,38,15,0,-2,1,238,2784.000,4.000,386278,17360,-282,-4172,-535,-38,44,-22287,19666,-1039,7,13327,849,-30273,408526,165,-708,2132,9484
2788,3576,1,32,-2,9,30,27,0,7,1,238,2784.000,4.000,386278,17360,-282,-4172,-535,-38,44,-22287,19666,-1039,7,13327,849,-30273,408526,165,-708,2132,9484
2793,3582,0,21,-2,8,34,18,4,8,1,239,2795.000,-2.000,386289,17340,-278,-4084,-530,-42,43,-21679,19027,-1324,7,13325,850,-30280,408584,165,-707,2132,9484
2793,3582,-3,-11,2,-6,6,-9,-10,-3,1,239,2795.000,-2.000,386289,17340,-278,-4084,-530,-42,43,-21679,19027,-1324,7,13325,850,-30280,408584,165,-707,2132,9484
2800,3588,-3,17,-1,-2,37,15,2,-2,1,239,2795.000,5.000,386289,17340,-278,-4084,-530,-42,43,-21679,19027,-1324,7,13325,850,-30280,408584,165,-707,2132,9484
2800,3588,2,33,-3,4,30,29,2,6,1,239,2795.000,5.000,386289,17340,-278,-4084,-530,-42,43,-21679,19027,-1324,7,13325,850,-30280,408584,165,-707,2132,9484
2817,3605,3,23,-1,8,34,19,4,9,1,241,2817.000,0.000,386311,17314,-278,-4068,-531,-42,42,-20476,17742,-1869,7,13323,851,-30292,408698,165,-707,2133,9484
2817,3605,-3,-9,-3,-9,12,-10,-10,-6,1,241,2817.000,0.000,386311,17314,-278,-4068,-531,-42,42,-20476,17742,-1869,7,13323,851,-30292,408698,165,-707,2133,9484
2819,3606,-3,17,0,-2,34,14,2,-1,1,241,2817.000,2.000,386311,17314,-278,-4068,-531,-42,42,-20476,17742,-1869,7,13323,851,-30292,408698,165,-707,2133,9484
2819,3606,3,31,2,6,30,28,0,5,1,241,2817.000,2.000,386311,17314,-278,-4068,-531,-42,42,-20476,17742,-1869,7,13323,851,-30292,408698,165,-707,2133,9484
2839,3627,-1,22,0,10,34,19,3,10,1,243,2839.000,0.000,386333,17352,-274,-4076,-533,-46,40,-19290,16448,-2381,7,13324,850,-30303,408813,165,-707,2133,9484
2839,3627,-3,-15,-1,-7,14,-14,-7,-8,1,243,2839.000,0.000,386333,17352,-274,-4076,-533,-46,40,-19290,16448,-2381,7,13324,850,-30303,408813,165,-707,2133,9484
2845,3633,0,16,-2,-3,34,14,4,-2,1,244,2850.000,-5.000,386344,17380,-268,-4036,-539,-46,41,-18704,15798,-2626,7,13319,850,-30306,408870,166,-704,2133,9484
2845,3633,0,30,2,11,29,30,2,6,1,244,2850.000,-5.000,386344,17380,-268,-4036,-539,-46,41,-18704,15798,-2626,7,13319,850,-30306,408870,166,-704,2133,9484
2853,3642,5,23,-2,10,33,20,5,8,1,244,2850.000,3.000,386344,17380,-268,-4036,-539,-46,41,-18704,15798,-2626,7,13319,850,-30306,408870,166,-704,2133,9484
2853,3642,-4,-16,3,-4,18,-12,-10,-10,1,244,2850.000,3.000,386344,17380,-268,-4036,-539,-46,41,-18704,15798,-2626,7,13319,850,-30306,408870,166,-704,2133,9484
2867,3656,-5,17,-3,-1,33,14,6,-2,1,246,2872.000,-5.000,386365,17340,-306,-4038,-536,-49,48,-17541,14493,-3088,7,13310,854,-30322,408974,165,-701,2134,9483
2868,3656,3,27,-3,2,29,30,4,6,1,246,2872.000,-4.000,386365,17340,-306,-4038,-536,-49,48,-17541,14493,-3088,7,13310,854,-30322,408974,165,-701,2134,9483
2876,3665,3,22,0,5,34,19,5,10,1,246,2872.000,4.000,386365,17340,-306,-4038,-536,-49,48,-17541,14493,-3088,7,13310,854,-30322,408974,165,-701,2134,9483
2876,3665,-6,-15,1,-11,18,-18,-11,-11,1,246,2872.000,4.000,386365,17340,-306,-4038,-536,-49,48,-17541,14493,-3088,7,13310,854,-30322,408974,165,-701,2134,9483
2878,3666,-1,16,2,1,33,13,5,-2,1,247,2882.000,-4.000,386376,17372,-302,-4076,-539,-47,47,-16965,13838,-3309,7,13308,857,-30337,409022,165,-700,2135,9484
2878,3666,3,29,-1,0,28,30,2,8,1,247,2882.000,-4.000,386376,17372,-302,-4076,-539,-47,47,-16965,13838,-3309,7,13308,857,-30337,409022,165,-700,2135,9484
2899,3687,5,22,0,6,33,20,3,10,1,249,2904.000,-5.000,386398,17356,-274,-4092,-537,-45,44,-15823,12524,-3725,7,13307,859,-30356,409107,165,-700,2136,9484
2899,3687,-7,-11,-5,-10,22,-16,-9,-11,1,249,2904.000,-5.000,386398,17356,-274,-4092,-537,-45,44,-15823,12524,-3725,7,13307,859,-30356,409107,165,-700,2136,9484
2900,3688,-2,16,-4,-1,31,14,4,-2,1,249,2904.000,-4.000,386398,17356,-274,-4092,-537,-45,44,-15823,12524,-3725,7,13307,859,-30356,409107,165,-700,2136,9484
2900,3688,2,25,2,12,29,27,3,9,1,249,2904.000,-4.000,386398,17356,-274,-4092,-537,-45,44,-15823,12524,-3725,7,13307,859,-30356,409107,165,-700,2136,9484
2913,3701,3,22,-2,5,32,19,5,9,1,250,2915.000,-2.000,386409,17388,-262,-4108,-537,-51,44,-15255,11865,-3922,7,13308,859,-30360,409149,165,-700,2136,9484
2913,3701,-4,-7,-3,-8,22,-17,-11,-11,1,250,2915.000,-2.000,386409,17388,-262,-4108,-537,-51,44,-15255,11865,-3922,7,13308,859,-30360,409149,165,-700,2136,9484
2920,3708,-2,16,-5,2,32,13,5,-2,1,250,2915.000,5.000,386409,17388,-262,-4108,-537,-51,44,-15255,11865,-3922,7,13308,859,-30360,409149,165,-700,2136,9484
2920,3708,4,26,0,8,27,31,3,9,1,250,2915.000,5.000,386409,17388,-262,-4108,-537,-51,44,-15255,11865,-3922,7,13308,859,-30360,409149,165,-700,2136,9484
2944,3732,1,22,1,4,32,19,5,8,1,253,2948.000,-4.000,386442,17306,-292,-4070,-536,-48,50,-13568,9884,-4469,7,13310,862,-30391,409273,166,-700,2137,9485
2944,3732,-5,-5,0,-8,23,-14,-12,-8,1,253,2948.000,-4.000,386442,17306,-292,-4070,-536,-48,50,-13568,9884,-4469,7,13310,862,-30391,409273,166,-700,2137,9485
2946,3733,-3,16,-1,-1,30,13,5,-2,1,253,2948.000,-2.000,386442,17306,-292,-4070,-536,-48,50,-13568,9884,-4469,7,13310,862,-30391,409273,166,-700,2137,9485
2946,3733,3,25,-1,9,27,27,2,7,1,253,2948.000,-2.000,386442,17306,-292,-4070,-536,-48,50,-13568,9884,-4469,7,13310,862,-30391,409273,166,-700,2137,9485
2959,3747,3,21,2,12,32,20,2,7,1,254,2958.000,1.000,386452,17324,-246,-4132,-537,-40,51,-13015,9228,-4634,7,13313,861,-30394,409311,165,-700,2136,9485
2959,3747,-4,-5,-1,-12,23,-11,-11,-12,1,254,2958.000,1.000,386452,17324,-246,-4132,-537,-40,51,-13015,9228,-4634,7,13313,861,-30394,409311,165,-700,2136,9485
2960,3748,-1,19,1,0,47,13,4,-2,1,254,2958.000,2.000,386452,17324,-246,-4132,-537,-40,51,-13015,9228,-4634,7,13313,861,-30394,409311,165,-700,2136,9485
2961,3748,3,26,5,1,27,28,4,9,1,254,2958.000,3.000,386452,17324,-246,-4132,-537,-40,51,-13015,9228,-4634,7,13313,861,-30394,409311,165,-700,2136,9485
2982,3769,3,22,-2,5,33,20,6,7,1,256,2980.000,2.000,386474,17384,-252,-4078,-547,-45,45,-11916,7915,-4944,7,13316,859,-30404,409399,165,-701,2136,9485
2982,3769,-7,0,-3,-13,24,-6,-10,-13,1,256,2980.000,2.000,386474,17384,-252,-4078,-547,-45,45,-11916,7915,-4944,7,13316,859,-30404,409399,165,-701,2136,9485
2983,3771,-1,19,-1,0,53,13,6,-2,1,256,2980.000,3.000,386474,17384,-252,-4078,-547,-45,45,-11916,7915,-4944,7,13316,859,-30404,409399,165,-701,2136,9485
2983,3771,0,25,-2,10,28,26,3,7,1,256,2980.000,3.000,386474,17384,-252,-4078,-547,-45,45,-11916,7915,-4944,7,13316,859,-30404,409399,165,-701,2136,9485
2996,3783,5,23,0,7,33,19,5,6,1,257,2991.000,5.000,386485,17368,-236,-4154,-539,-41,41,-11369,7257,-5088,7,13319,856,-30405,409447,166,-702,2135,9485
2996,3783,-4,-1,-1,-11,25,-6,-9,-10,1,257,2991.000,5.000,386485,17368,-236,-4154,-539,-41,41,-11369,7257,-5088,7,13319,856,-30405,409447,166,-702,2135,9485
3004,3793,0,20,-1,1,63,17,6,-2,1,258,3001.000,3.000,386495,17394,-278,-4122,-539,-47,39,-10823,6600,-5225,7,13321,857,-30414,409499,165,-702,2135,9485
3004,3793,2,26,0,2,28,25,1,7,1,258,3001.000,3.000,386495,17394,-278,-4122,-539,-47,39,-10823,6600,-5225,7,13321,857,-30414,409499,165,-702,2135,9485
3019,3807,2,23,2,12,31,20,5,5,1,260,3023.000,-4.000,386517,17374,-260,-4120,-547,-40,45,-9737,5288,-5477,7,13323,854,-30422,409605,165,-703,2134,9485
3019,3807,-6,0,-1,-18,26,-3,-9,-12,1,260,3023.000,-4.000,386517,17374,-260,-4120,-547,-40,45,-9737,5288,-5477,7,13323,854,-30422,409605,165,-703,2134,9485
3020,3809,-1,20,0,1,59,18,10,-2,1,260,3023.000,-3.000,386517,17374,-260,-4120,-547,-40,45,-9737,5288,-5477,7,13323,854,-30422,409605,165,-703,2134,9485
3021,3809,0,25,-2,1,29,24,3,7,1,260,3023.000,-2.000,386517,17374,-260,-4120,-547,-40,45,-9737,5288,-5477,7,13323,854,-30422,409605,165,-703,2134,9485
3033,3822,5,23,4,16,33,20,4,6,1,261,3034.000,-1.000,386528,17404,-256,-4132,-542,-40,46,-9200,4638,-5591,7,13324,853,-30427,409659,165,-703,2134,9485
3034,3822,-6,1,-1,-19,24,-1,-10,-13,1,261,3034.000,0.000,386528,17404,-256,-4132,-542,-40,46,-9200,4638,-5591,7,13324,853,-30427,409659,165,-703,2134,9485
3040,3828,1,23,1,-1,60,18,5,-2,1,262,3044.000,-4.000,386538,17346,-266,-4120,-541,-39,37,-8664,3989,-5699,7,13325,853,-30433,409715,165,-703,2134,9485
3040,3828,1,24,1,7,29,23,3,8,1,262,3044.000,-4.000,386538,17346,-266,-4120,-541,-39,37,-8664,3989,-5699,7,13325,853,-30433,409715,165,-703,2134,9485
3056,3844,3,24,-1,4,32,20,2,6,1,263,3055.000,1.000,386549,17348,-280,-4142,-544,-38,52,-8129,3342,-5800,7,13328,854,-30444,409770,165,-704,2135,9485
3056,3844,-4,4,-2,-10,28,3,-11,-14,1,263,3055.000,1.000,386549,17348,-280,-4142,-544,-38,52,-8129,3342,-5800,7,13328,854,-30444,409770,165,-704,2135,9485
3064,3852,-1,21,0,-2,57,19,8,-2,1,264,3066.000,-2.000,386560,17328,-280,-4080,-538,-40,44,-7594,2695,-5893,7,13326,855,-30451,409826,169,-703,2135,9485
3064,3852,4,24,-1,10,28,24,3,8,1,264,3066.000,-2.000,386560,17328,-280,-4080,-538,-40,44,-7594,2695,-5893,7,13326,855,-30451,409826,169,-703,2135,9485
3080,3868,1,24,1,13,31,20,7,6,1,265,3077.000,3.000,386571,17388,-254,-4104,-535,-40,45,-7060,2050,-5979,7,13325,854,-30454,409882,166,-703,2135,9485
3080,3868,-5,2,-4,-9,26,0,-12,-14,1,265,3077.000,3.000,386571,17388,-254,-4104,-535,-40,45,-7060,2050,-5979,7,13325,854,-30454,409882,166,-703,2135,9485
3093,3882,1,21,1,3,58,18,7,-2,1,267,3098.000,-5.000,386592,17318,-246,-4124,-533,-43,47,-5994,765,-6130,7,13322,852,-30455,409991,165,-702,2134,9484
3093,3882,2,25,2,8,29,24,5,3,1,267,3098.000,-5.000,386592,17318,-246,-4124,-533,-43,47,-5994,765,-6130,7,13322,852,-30455,409991,165,-702,2134,9484
3094,3882,4,26,-4,7,32,23,6,6,1,267,3098.000,-4.000,386592,17318,-246,-4124,-533,-43,47,-5994,765,-6130,7,13322,852,-30455,409991,165,-702,2134,9484
3094,3882,-6,4,-3,-8,27,2,-10,-21,1,267,3098.000,-4.000,386592,17318,-246,-4124,-533,-43,47,-5994,765,-6130,7,13322,852,-30455,409991,165,-702,2134,9484
3102,3890,0,20,0,1,48,18,8,-3,1,267,3098.000,4.000,386592,17318,-246,-4124,-533,-43,47,-5994,765,-6130,7,13322,852,-30455,409991,165,-702,2134,9484
3102,3890,-1,24,1,2,28,24,1,11,1,267,3098.000,4.000,386592,17318,-246,-4124,-533,-43,47,-5994,765,-6130,7,13322,852,-30455,409991,165,-702,2134,9484
3117,3904,3,26,2,14,30,23,5,6,1,269,3119.000,-2.000,386613,17364,-264,-4098,-542,-43,45,-4938,-500,-6253,7,13319,850,-30463,410100,165,-700,2133,9484
3117,3904,-4,3,2,-6,25,1,-10,-19,1,269,3119.000,-2.000,386613,17364,-264,-4098,-542,-43,45,-4938,-500,-6253,7,13319,850,-30463,410100,165,-700,2133,9484
