pc_t_ms,t_ms,ax_raw,ay_raw,az_raw,gx_raw,gy_raw,gz_raw,mad_roll_mdeg,mad_pitch_mdeg,mad_yaw_mdeg,mad_us,ekf_roll_mdeg,ekf_pitch_mdeg,ekf_yaw_mdeg,traceP_1e6,ekf_us,bx_uradps,by_uradps,bz_uradps
197,1125862,17304,-782,-3974,-534,-45,51,34987,-20895,5678,7,13298,1971,-44464,556601,165,-380,2331,9376
201,1125873,17352,-840,-3970,-536,-42,48,35569,-21353,6046,7,13205,2142,-44679,545422,165,-357,2368,9372
206,1125884,17386,-826,-4022,-536,-38,47,36157,-21808,6419,7,13174,2236,-44966,533463,165,-348,2394,9392
210,1125895,17370,-798,-4034,-535,-42,48,36750,-22259,6799,7,13159,2288,-45143,520072,165,-343,2409,9405
221,1125906,17350,-818,-3978,-535,-43,47,37348,-22707,7186,7,13125,2335,-45090,507026,165,-335,2415,9389
232,1125917,17332,-824,-4042,-536,-39,47,37952,-23151,7579,7,13127,2375,-45369,497577,165,-334,2431,9417
243,1125928,17346,-860,-3950,-532,-42,52,38560,-23591,7978,7,13094,2419,-45269,486023,165,-326,2436,9396
254,1125939,17354,-848,-3998,-538,-46,58,39175,-24028,8383,7,13083,2450,-45346,478068,165,-323,2443,9400
265,1125950,17302,-822,-3988,-530,-39,49,39795,-24460,8796,7,13073,2470,-45363,470220,165,-321,2447,9398
276,1125961,17306,-820,-3956,-533,-48,43,40421,-24890,9216,7,13057,2485,-45252,463535,165,-317,2446,9380
286,1125972,17362,-886,-4038,-532,-40,42,41054,-25316,9642,7,13061,2513,-45514,459237,165,-316,2459,9408
298,1125983,17362,-884,-4058,-533,-43,40,41693,-25738,10076,7,13069,2536,-45791,452973,165,-316,2472,9439
309,1125994,17344,-852,-4044,-532,-48,43,42343,-26158,10520,7,13074,2550,-45949,443843,165,-316,2479,9456
320,1126005,17370,-756,-4072,-537,-53,51,42999,-26575,10970,7,13083,2543,-46010,433980,165,-318,2479,9464
331,1126016,17380,-814,-4024,-541,-39,49,43660,-26988,11427,7,13080,2547,-46003,424917,165,-317,2480,9462
355,1126027,17306,-802,-4028,-547,-39,47,44327,-27396,11891,7,13082,2550,-46041,416915,165,-317,2481,9465
358,1126038,17332,-760,-4032,-542,-50,49,45002,-27800,12363,7,13084,2544,-46021,409787,165,-318,2479,9463
364,1126049,17386,-794,-4062,-529,-48,49,45683,-28198,12842,7,13088,2545,-46070,404256,165,-318,2481,9469
375,1126060,17320,-842,-4020,-529,-40,46,46371,-28592,13329,7,13087,2554,-46108,398624,165,-318,2483,9471
387,1126071,17338,-776,-4024,-538,-42,56,47064,-28980,13823,7,13087,2552,-46085,393347,165,-318,2482,9468
397,1126082,17314,-822,-4028,-536,-36,51,47764,-29364,14324,7,13087,2557,-46121,388939,165,-318,2484,9471
408,1126093,17390,-832,-4006,-535,-34,45,48471,-29743,14833,7,13082,2562,-46091,384954,165,-317,2483,9466
419,1126104,17310,-842,-4000,-538,-38,49,49185,-30117,15349,7,13079,2570,-46095,381455,165,-316,2485,9464
430,1126115,17370,-842,-3996,-533,-44,54,49906,-30485,15872,7,13074,2576,-46067,378463,165,-315,2485,9459
441,1126126,17394,-820,-4002,-537,-41,51,50634,-30848,16403,7,13069,2579,-46028,376032,165,-314,2483,9452
453,1126138,17342,-848,-3978,-537,-40,48,51369,-31205,16942,7,13063,2586,-45994,374014,166,-313,2483,9446
463,1126149,17334,-836,-3990,-536,-43,43,52111,-31557,17489,7,13060,2590,-45975,372378,166,-312,2483,9442
474,1126160,17380,-818,-4016,-546,-42,48,52859,-31903,18042,7,13058,2591,-45967,371053,167,-311,2483,9440
485,1126171,17350,-842,-4052,-544,-40,46,53615,-32244,18604,7,13062,2596,-46038,369879,165,-312,2486,9447
496,1126182,17384,-814,-4030,-544,-45,55,54378,-32578,19172,7,13062,2597,-46043,368528,165,-312,2486,9447
507,1126193,17340,-772,-4016,-532,-43,49,55148,-32905,19749,7,13062,2593,-46015,367242,165,-312,2484,9443
519,1126204,17370,-804,-4024,-535,-39,52,55925,-33226,20333,7,13061,2594,-46011,366250,165,-312,2484,9442
530,1126215,17340,-836,-4048,-535,-44,47,56709,-33541,20925,7,13065,2597,-46064,365359,165,-312,2486,9448
541,1126226,17340,-826,-3986,-538,-48,45,57501,-33850,21525,7,13062,2600,-46035,364325,165,-311,2485,9443
552,1126237,17330,-820,-4010,-528,-46,42,58300,-34151,22132,7,13061,2601,-46035,363502,165,-311,2485,9442
563,1126248,17320,-870,-3968,-539,-41,51,59105,-34446,22746,7,13056,2609,-46019,362748,165,-310,2486,9438
574,1126259,17356,-870,-3978,-533,-42,45,59917,-34734,23369,7,13051,2615,-46006,362125,165,-309,2486,9434
585,1126270,17340,-822,-3998,-534,-36,45,60736,-35014,23998,7,13049,2616,-45993,361580,165,-308,2486,9431
596,1126281,17388,-860,-4002,-536,-50,41,61563,-35288,24635,7,13047,2621,-45993,361141,165,-308,2486,9430
607,1126292,17346,-872,-3978,-542,-48,50,62396,-35555,25278,7,13044,2627,-45987,360716,165,-307,2487,9427
618,1126303,17306,-838,-4016,-537,-39,44,63235,-35814,25929,7,13045,2630,-46014,360321,165,-307,2488,9429
629,1126314,17360,-834,-3956,-547,-47,49,64081,-36066,26586,7,13039,2631,-45960,359919,165,-306,2487,9421
640,1126325,17366,-788,-3980,-536,-52,45,64935,-36310,27251,7,13036,2628,-45904,359653,165,-305,2484,9413
651,1126336,17334,-836,-3938,-540,-45,51,65794,-36546,27922,7,13029,2631,-45847,359468,165,-304,2482,9404
662,1126347,17336,-818,-3944,-535,-41,51,66659,-36773,28600,7,13023,2632,-45786,359307,165,-302,2480,9395
673,1126359,17384,-828,-4054,-537,-37,53,67530,-36993,29284,7,13026,2633,-45826,359135,169,-303,2481,9400
684,1126370,17378,-830,-3984,-540,-43,53,68409,-37205,29975,7,13023,2635,-45806,358996,167,-302,2481,9396
695,1126381,17336,-812,-4030,-540,-50,50,69293,-37408,30672,7,13026,2634,-45826,358842,166,-303,2481,9398
706,1126392,17346,-828,-3964,-538,-40,46,70183,-37604,31375,7,13022,2636,-45795,358712,165,-302,2480,9393
717,1126403,17296,-808,-3984,-536,-42,51,71077,-37790,32083,7,13021,2635,-45781,358550,165,-301,2479,9390
728,1126414,17364,-794,-4024,-545,-44,47,71978,-37968,32798,7,13022,2633,-45779,358393,165,-302,2478,9390
740,1126425,17330,-798,-4036,-537,-40,50,72883,-38137,33518,7,13025,2631,-45795,358238,165,-302,2478,9391
751,1126436,17320,-850,-3988,-538,-46,49,73794,-38297,34243,7,13024,2635,-45804,358109,165,-302,2479,9391
762,1126447,17336,-828,-4058,-541,-40,44,74710,-38449,34974,7,13029,2636,-45850,357993,165,-303,2481,9396
773,1126458,17400,-812,-3984,-536,-44,39,75632,-38591,35710,7,13025,2635,-45822,357925,165,-302,2479,9392
784,1126469,17386,-838,-3988,-538,-44,42,76557,-38725,36450,7,13023,2636,-45813,357837,165,-301,2479,9390
795,1126480,17350,-844,-3990,-534,-43,43,77487,-38848,37195,7,13022,2638,-45815,357734,165,-301,2479,9389
806,1126491,17334,-848,-4046,-535,-41,44,78420,-38963,37944,7,13025,2641,-45860,357631,165,-301,2481,9393
817,1126502,17354,-876,-3990,-537,-47,46,79358,-39068,38696,7,13024,2646,-45874,357568,165,-301,2482,9394
828,1126513,17374,-832,-3954,-545,-46,48,80298,-39165,39451,7,13019,2647,-45841,357510,165,-300,2481,9388
839,1126524,17364,-844,-3994,-548,-41,47,81241,-39252,40210,7,13018,2649,-45844,357424,165,-299,2481,9387
850,1126535,17372,-836,-4036,-554,-43,40,82188,-39330,40972,7,13020,2649,-45869,357340,165,-300,2482,9389
861,1126546,17372,-840,-4030,-542,-38,43,83137,-39398,41737,7,13021,2650,-45890,357279,165,-300,2483,9391
872,1126557,17344,-800,-4074,-536,-43,47,84089,-39455,42504,7,13027,2648,-45925,357230,165,-301,2483,9395
883,1126569,17346,-816,-4024,-541,-42,40,85042,-39503,43274,7,13029,2647,-45934,357202,166,-301,2483,9396
897,1126580,17362,-786,-4020,-539,-39,47,85997,-39541,44044,7,13029,2644,-45928,357183,167,-301,2482,9395
905,1126591,17336,-818,-3990,-538,-43,48,86954,-39569,44817,7,13028,2644,-45920,357166,166,-301,2482,9393
916,1126602,17362,-822,-4094,-541,-48,43,87913,-39588,45590,7,13035,2644,-45966,357152,166,-302,2483,9399
927,1126613,17340,-788,-4014,-538,-52,42,88873,-39596,46365,7,13036,2641,-45960,357150,165,-302,2482,9398
938,1126624,17372,-830,-3974,-533,-46,49,89832,-39594,47139,7,13033,2642,-45945,357155,165,-301,2481,9394
949,1126635,17328,-828,-4028,-536,-45,47,90791,-39583,47913,7,13035,2643,-45961,357155,165,-302,2482,9396
961,1126646,17346,-840,-4024,-535,-41,46,91750,-39561,48688,7,13036,2645,-45976,357161,165,-302,2482,9397
972,1126657,17376,-850,-4032,-535,-40,45,92709,-39530,49462,7,13037,2647,-45994,357172,165,-302,2483,9398
983,1126668,17384,-856,-4006,-542,-36,59,93666,-39489,50233,7,13036,2651,-46000,357184,165,-301,2484,9397
994,1126679,17320,-810,-4034,-541,-42,54,94622,-39438,51004,7,13038,2650,-46014,357192,165,-302,2484,9399
1005,1126690,17318,-832,-4032,-531,-45,51,95577,-39377,51774,7,13041,2652,-46032,357205,165,-302,2484,9400
1016,1126701,17372,-828,-3878,-539,-41,46,96531,-39306,52542,7,13029,2652,-45973,357219,165,-300,2482,9391
1027,1126712,17326,-830,-4060,-534,-46,39,97484,-39225,53310,7,13034,2653,-46003,357221,165,-301,2483,9394
1038,1126723,17340,-832,-3986,-532,-37,43,98434,-39135,54074,7,13031,2653,-45999,357235,165,-300,2483,9393
1049,1126734,17368,-814,-3998,-535,-44,42,99381,-39034,54835,7,13030,2652,-45992,357249,165,-300,2482,9391
1060,1126745,17358,-866,-3940,-534,-46,50,100326,-38924,55593,7,13024,2656,-45978,357259,165,-298,2482,9387
1071,1126756,17348,-848,-4014,-538,-53,44,101276,-38804,56354,7,13026,2658,-45992,357256,165,-298,2483,9388
1082,1126768,17336,-828,-3998,-532,-50,44,102222,-38673,57111,7,13026,2659,-45992,357257,166,-298,2482,9387
1093,1126779,17362,-828,-3994,-539,-47,54,103164,-38534,57864,7,13025,2659,-45990,357260,165,-298,2482,9386
1105,1126790,17362,-812,-4030,-535,-43,43,104102,-38384,58613,7,13027,2658,-45996,357258,165,-298,2482,9386
1116,1126801,17350,-832,-4060,-537,-47,41,105036,-38225,59358,7,13031,2658,-46020,357261,165,-299,2483,9389
1127,1126812,17342,-828,-3958,-533,-44,41,105966,-38056,60099,7,13027,2658,-46005,357278,165,-298,2482,9386
1138,1126823,17340,-840,-4058,-540,-46,50,106891,-37879,60833,7,13032,2660,-46032,357284,165,-299,2483,9388
1149,1126834,17324,-820,-3976,-546,-44,49,107810,-37692,61563,7,13029,2660,-46025,357304,165,-298,2482,9386
1160,1126846,17360,-758,-3968,-544,-41,42,108725,-37496,62288,7,13026,2653,-45995,357319,166,-297,2480,9382
1171,1126857,17346,-814,-4036,-537,-40,44,109635,-37291,63006,8,13028,2653,-46005,357309,165,-298,2480,9383
1183,1126868,17362,-812,-4022,-535,-49,47,110540,-37076,63720,7,13029,2652,-46008,357309,165,-298,2480,9383
1194,1126879,17348,-876,-4020,-541,-48,41,111440,-36853,64427,7,13031,2656,-46030,357310,165,-298,2481,9384
1205,1126890,17368,-842,-3974,-541,-47,46,112333,-36621,65128,7,13028,2657,-46027,357324,165,-297,2481,9382
1216,1126901,17374,-824,-4028,-535,-45,46,113220,-36380,65822,7,13029,2657,-46034,357332,165,-297,2481,9383
1227,1126912,17350,-880,-3990,-532,-45,46,114101,-36130,66509,7,13028,2662,-46046,357342,165,-297,2482,9382
1238,1126924,17392,-866,-3982,-538,-45,44,114976,-35872,67190,7,13025,2665,-46049,357358,166,-296,2482,9381
1249,1126935,17368,-856,-4054,-547,-43,54,115844,-35606,67864,7,13029,2668,-46074,357370,166,-296,2483,9384
1261,1126946,17360,-828,-4006,-539,-41,47,116706,-35332,68531,7,13028,2668,-46076,357394,165,-296,2483,9383
1272,1126957,17372,-824,-3990,-540,-49,46,117561,-35049,69191,7,13027,2667,-46072,357418,165,-296,2482,9381
1283,1126968,17322,-856,-4018,-536,-49,40,118411,-34758,69844,7,13029,2670,-46088,357435,165,-296,2483,9383
1294,1126979,17354,-810,-4002,-543,-49,49,119253,-34460,70489,7,13029,2668,-46085,357461,165,-296,2483,9381
1375,1126990,17396,-840,-4014,-541,-37,43,120088,-34153,71128,7,13028,2669,-46090,357484,165,-296,2483,9381
1376,1127001,17334,-856,-4016,-537,-42,44,120916,-33839,71758,7,13029,2671,-46104,357507,165,-296,2483,9382
1377,1127013,17362,-850,-3980,-531,-47,42,121738,-33517,72381,7,13026,2673,-46103,357535,166,-295,2483,9380
1378,1127024,17288,-852,-4030,-531,-33,38,122551,-33187,72997,7,13029,2674,-46125,357557,165,-295,2484,9382
1379,1127035,17312,-868,-4032,-537,-37,42,123358,-32850,73605,7,13031,2677,-46148,357588,165,-296,2486,9384
1380,1127046,17318,-854,-4032,-538,-47,41,124159,-32506,74205,7,13034,2679,-46166,357624,165,-296,2486,9386
1381,1127057,17308,-844,-3982,-540,-45,46,124953,-32155,74797,7,13032,2680,-46167,357662,165,-296,2486,9385
1383,1127068,17346,-826,-4026,-539,-41,42,125739,-31798,75382,7,13034,2680,-46175,357699,169,-296,2486,9385
1394,1127079,17350,-810,-3994,-539,-44,43,126519,-31433,75959,7,13032,2678,-46170,357739,165,-296,2486,9384
1405,1127091,17368,-804,-4082,-532,-42,45,127292,-31061,76528,7,13038,2675,-46187,357780,166,-297,2486,9386
1416,1127102,17410,-796,-4004,-539,-40,51,128057,-30684,77089,7,13036,2673,-46180,357826,165,-296,2484,9385
1428,1127113,17372,-764,-4050,-532,-46,49,128815,-30299,77642,7,13039,2668,-46180,357872,165,-297,2483,9385
1439,1127124,17338,-830,-4058,-533,-44,47,129566,-29909,78187,7,13043,2668,-46195,357920,165,-297,2484,9387
1450,1127135,17306,-814,-4052,-537,-42,52,130310,-29512,78723,7,13047,2667,-46208,357971,165,-298,2484,9388
1461,1127146,17410,-800,-4052,-537,-49,55,131048,-29110,79253,7,13050,2666,-46214,358025,165,-298,2483,9389
1472,1127157,17320,-840,-4016,-540,-54,56,131779,-28702,79774,7,13051,2668,-46221,358080,165,-298,2483,9389
1483,1127169,17322,-850,-3988,-540,-37,51,132502,-28288,80288,7,13049,2670,-46225,358135,166,-298,2484,9388
1494,1127180,17356,-810,-4042,-549,-47,45,133220,-27868,80795,7,13051,2668,-46233,358189,167,-298,2483,9388
1506,1127191,17386,-762,-4012,-538,-47,45,133931,-27442,81294,7,13051,2663,-46230,358245,165,-298,2482,9388
1517,1127202,17338,-834,-4038,-540,-54,47,134636,-27011,81785,7,13054,2663,-46240,358301,165,-298,2482,9388
1528,1127213,17360,-842,-4038,-538,-47,54,135333,-26574,82268,7,13056,2665,-46249,358358,165,-299,2482,9389
1539,1127224,17358,-806,-4016,-542,-42,48,136024,-26132,82745,7,13055,2664,-46252,358415,165,-298,2482,9388
1550,1127235,17334,-814,-3998,-540,-44,46,136708,-25685,83213,7,13054,2663,-46255,358473,165,-298,2482,9388
1561,1127247,17362,-820,-3990,-534,-47,49,137387,-25232,83674,7,13052,2662,-46256,358530,165,-297,2481,9387
1572,1127258,17390,-800,-3954,-536,-39,49,138058,-24775,84127,7,13046,2660,-46252,358586,166,-296,2480,9385
1583,1127269,17334,-844,-3974,-532,-44,50,138724,-24312,84573,7,13043,2663,-46257,358638,165,-295,2480,9384
1595,1127280,17330,-846,-3962,-538,-38,53,139383,-23846,85011,7,13039,2665,-46262,358690,165,-294,2481,9383
1606,1127291,17302,-834,-4058,-531,-50,45,140036,-23373,85443,7,13044,2666,-46274,358739,165,-295,2481,9384
1617,1127302,17320,-844,-4046,-529,-47,49,140684,-22897,85866,7,13048,2668,-46285,358792,165,-296,2481,9385
1628,1127313,17360,-854,-4010,-545,-40,43,141326,-22416,86284,7,13047,2669,-46293,358848,165,-296,2482,9385
1639,1127324,17346,-840,-4012,-543,-43,48,141962,-21931,86695,7,13047,2671,-46300,358903,165,-295,2482,9385
1650,1127336,17312,-824,-4046,-545,-45,43,142593,-21441,87099,7,13051,2670,-46310,358958,166,-296,2482,9386
1661,1127347,17362,-780,-4058,-547,-49,44,143218,-20948,87496,7,13054,2665,-46315,359015,165,-297,2481,9387
1673,1127358,17360,-834,-4036,-537,-38,43,143838,-20450,87886,7,13055,2666,-46322,359073,165,-297,2481,9387
1684,1127369,17344,-852,-4048,-538,-42,46,144452,-19948,88269,7,13058,2668,-46332,359131,165,-297,2482,9387
1695,1127380,17336,-796,-3974,-534,-54,44,145061,-19441,88645,7,13056,2665,-46331,359190,165,-296,2481,9386
1706,1127391,17340,-810,-4058,-533,-43,43,145665,-18931,89014,7,13059,2664,-46338,359248,165,-297,2481,9387
1717,1127402,17358,-864,-4032,-539,-38,42,146263,-18417,89377,7,13060,2666,-46347,359307,165,-297,2482,9387
1728,1127414,17322,-844,-3946,-536,-41,45,146857,-17900,89733,7,13054,2668,-46348,359366,166,-296,2482,9385
1739,1127425,17360,-848,-4022,-536,-42,47,147446,-17379,90083,7,13054,2670,-46356,359424,165,-296,2482,9385
1751,1127436,17342,-804,-4034,-532,-45,41,148030,-16854,90426,7,13056,2667,-46360,359481,165,-296,2481,9386
1762,1127447,17346,-830,-3994,-540,-42,45,148609,-16326,90763,7,13054,2667,-46364,359539,165,-296,2481,9385
1773,1127458,17346,-836,-3972,-540,-43,43,149185,-15794,91094,7,13050,2668,-46367,359597,165,-295,2481,9384
1784,1127469,17402,-876,-3982,-535,-35,47,149755,-15260,91418,7,13046,2672,-46375,359653,165,-294,2482,9383
1795,1127480,17332,-866,-4018,-541,-39,51,150320,-14722,91737,7,13047,2675,-46387,359708,165,-294,2483,9384
1806,1127492,17344,-864,-3936,-546,-41,50,150883,-14182,92049,7,13040,2679,-46389,359763,165,-292,2483,9382
1817,1127503,17388,-802,-3994,-543,-49,49,151441,-13638,92356,7,13038,2676,-46386,359816,166,-292,2482,9380
1828,1127514,17354,-840,-4032,-537,-41,48,151995,-13091,92656,7,13040,2677,-46395,359866,165,-292,2482,9381
1840,1127525,17334,-796,-4018,-545,-43,45,152545,-12542,92951,7,13041,2674,-46395,359918,165,-292,2481,9380
1851,1127536,17366,-812,-4032,-537,-45,41,153091,-11988,93239,7,13042,2672,-46398,359970,165,-292,2481,9380
1863,1127547,17374,-806,-4040,-533,-46,44,153634,-11432,93522,7,13044,2670,-46401,360022,165,-292,2480,9380
1873,1127558,17346,-842,-4042,-539,-43,50,154173,-10874,93799,7,13047,2671,-46410,360073,165,-293,2481,9381
1884,1127569,17334,-788,-4090,-533,-38,50,154707,-10313,94069,7,13053,2668,-46415,360127,165,-294,2480,9382
1895,1127581,17364,-808,-4028,-538,-38,47,155239,-9749,94335,7,13053,2667,-46419,360182,166,-294,2480,9382
1906,1127592,17350,-802,-4018,-546,-45,54,155764,-9188,94593,7,13053,2665,-46423,360237,166,-294,2479,9382
1917,1127603,17392,-830,-4042,-539,-41,50,156285,-8624,94846,7,13055,2666,-46429,360291,165,-294,2479,9382
1928,1127614,17384,-816,-3978,-536,-46,47,156804,-8057,95093,7,13051,2665,-46433,360346,165,-293,2479,9381
1939,1127625,17342,-828,-4010,-540,-47,44,157320,-7488,95335,7,13051,2665,-46439,360399,165,-293,2479,9381
1950,1127636,17328,-786,-4020,-535,-41,38,157832,-6916,95571,7,13052,2661,-46440,360452,165,-293,2478,9381
1962,1127647,17362,-842,-4030,-538,-42,39,158342,-6341,95803,7,13053,2661,-46447,360504,165,-293,2478,9381
1973,1127658,17332,-842,-3988,-536,-49,39,158849,-5765,96029,7,13051,2662,-46455,360556,165,-293,2478,9381
1984,1127669,17380,-846,-4024,-538,-50,47,159355,-5187,96249,7,13052,2664,-46463,360610,165,-293,2479,9381
1995,1127680,17360,-860,-3972,-542,-48,45,159857,-4606,96465,7,13048,2667,-46473,360665,165,-292,2479,9380
2006,1127691,17312,-844,-3974,-537,-41,49,160357,-4024,96675,7,13046,2668,-46480,360719,165,-291,2479,9380
2017,1127702,17360,-790,-3970,-538,-44,48,160854,-3440,96880,7,13042,2665,-46478,360773,165,-290,2478,9378
2028,1127713,17360,-802,-3992,-542,-41,44,161349,-2854,97081,7,13040,2663,-46478,360824,165,-290,2478,9378
2039,1127724,17330,-802,-4016,-539,-42,51,161842,-2267,97276,7,13040,2661,-46480,360872,165,-290,2477,9377
2050,1127735,17382,-806,-4028,-541,-38,50,162333,-1677,97466,7,13041,2660,-46482,360920,165,-290,2476,9377
2061,1127746,17352,-788,-4040,-539,-43,44,162823,-1085,97652,7,13043,2657,-46480,360965,165,-290,2476,9377
2072,1127757,17370,-812,-3988,-544,-43,48,163310,-492,97832,7,13041,2656,-46486,361008,165,-290,2475,9376
2083,1127768,17358,-876,-4040,-539,-45,45,163792,97,98007,7,13043,2660,-46500,361050,165,-290,2476,9377
2094,1127779,17342,-850,-4054,-535,-48,43,164266,680,98173,7,13047,2662,-46509,361097,169,-290,2477,9377
2105,1127790,17388,-852,-4060,-536,-43,47,164741,1269,98336,7,13050,2664,-46518,361147,165,-291,2477,9378
2116,1127801,17378,-808,-4058,-536,-45,44,165219,1865,98495,7,13053,2662,-46521,361200,165,-292,2477,9378
2126,1127812,17324,-846,-4048,-538,-39,44,165695,2462,98650,7,13056,2664,-46529,361252,165,-292,2478,9379
2137,1127823,17292,-812,-4038,-540,-47,41,166170,3060,98800,7,13059,2662,-46534,361306,165,-293,2477,9379
2148,1127834,17374,-856,-3964,-535,-48,44,166645,3660,98945,7,13054,2664,-46542,361360,165,-291,2478,9378
2159,1127845,17334,-794,-4056,-534,-43,38,167118,4262,99086,7,13058,2661,-46544,361415,165,-292,2477,9379
2170,1127856,17346,-838,-4014,-538,-41,44,167590,4864,99221,7,13058,2662,-46551,361469,165,-292,2477,9378
2181,1127867,17364,-808,-3978,-542,-41,44,168062,5468,99353,7,13054,2660,-46556,361524,165,-291,2477,9378
2192,1127878,17396,-792,-3968,-532,-37,44,168532,6073,99478,7,13049,2657,-46558,361578,165,-290,2476,9377
2203,1127889,17332,-854,-3970,-535,-40,43,169002,6679,99600,7,13045,2660,-46569,361629,165,-289,2476,9377
2214,1127900,17360,-858,-3990,-548,-35,48,169471,7286,99717,7,13042,2662,-46581,361682,167,-288,2477,9377
2225,1127911,17364,-804,-4082,-545,-43,49,169940,7894,99830,7,13048,2661,-46584,361736,166,-290,2477,9377
2236,1127922,17340,-808,-3990,-532,-45,53,170410,8503,99936,7,13046,2660,-46587,361791,166,-289,2476,9377
2247,1127933,17376,-822,-3996,-539,-40,51,170878,9113,100039,7,13044,2660,-46593,361845,166,-288,2476,9376
2258,1127944,17318,-880,-3994,-538,-49,46,171351,9730,100137,7,13043,2665,-46608,361898,166,-288,2477,9377
2269,1127955,17306,-850,-4036,-540,-49,45,171824,10347,100231,7,13047,2667,-46619,361953,166,-289,2478,9377
2280,1127966,17348,-818,-4004,-542,-44,47,172300,10970,100320,7,13046,2666,-46623,362011,165,-288,2477,9377
2292,1127977,17362,-844,-4048,-535,-49,42,172777,11595,100404,7,13049,2667,-46632,362068,165,-289,2478,9378
2303,1127988,17368,-826,-3968,-542,-42,46,173254,12220,100484,7,13045,2667,-46636,362126,165,-288,2477,9377
2314,1127999,17374,-836,-3914,-541,-47,42,173732,12846,100559,7,13037,2667,-46641,362183,165,-286,2477,9375
2325,1128010,17310,-848,-4026,-541,-42,50,174210,13473,100628,7,13039,2669,-46653,362236,165,-286,2478,9376
2336,1128021,17352,-834,-4026,-532,-44,46,174689,14100,100691,7,13040,2670,-46659,362292,165,-286,2478,9376
2347,1128033,17370,-840,-4026,-539,-41,47,175168,14728,100750,7,13040,2671,-46667,362347,166,-286,2478,9376
2358,1128044,17336,-800,-4010,-538,-45,46,175649,15357,100804,7,13041,2668,-46667,362403,165,-286,2477,9375
2370,1128055,17356,-832,-4060,-547,-48,51,176130,15986,100853,7,13045,2669,-46676,362459,165,-287,2477,9376
2381,1128066,17402,-766,-4018,-539,-46,49,176613,16616,100896,7,13045,2664,-46671,362517,165,-287,2476,9375
2392,1128077,17392,-814,-3934,-543,-44,48,177097,17246,100935,7,13037,2663,-46676,362573,165,-285,2475,9374
2403,1128088,17342,-830,-3982,-547,-41,46,177582,17878,100968,7,13035,2663,-46684,362626,165,-284,2475,9374
2414,1128099,17380,-874,-4010,-541,-49,48,178070,18509,100995,7,13035,2667,-46700,362678,165,-284,2476,9374
2425,1128111,17378,-854,-4016,-539,-41,47,178559,19141,101017,7,13035,2669,-46711,362732,166,-284,2477,9375
2436,1128122,17330,-846,-4094,-544,-39,51,179049,19773,101033,7,13042,2671,-46723,362787,165,-285,2477,9376
2448,1128133,17324,-806,-4024,-537,-44,54,179541,20406,101043,7,13043,2670,-46726,362844,165,-286,2477,9376
2459,1128144,17354,-848,-4000,-540,-42,47,-179963,21039,101048,7,13042,2672,-46734,362901,165,-285,2477,9376
2470,1128155,17310,-830,-4092,-542,-47,50,-179462,21677,101047,7,13050,2672,-46743,362959,165,-287,2478,9377
2481,1128166,17374,-840,-4032,-538,-45,50,-178958,22315,101040,7,13051,2673,-46751,363019,165,-287,2478,9377
2492,1128178,17380,-828,-3962,-536,-50,43,-178451,22954,101026,7,13047,2673,-46754,363079,166,-286,2477,9376
2504,1128189,17388,-864,-3958,-539,-49,48,-177942,23593,101007,7,13042,2676,-46763,363139,165,-284,2478,9375
2515,1128200,17336,-826,-3986,-542,-53,52,-177429,24232,100982,7,13041,2676,-46767,363195,165,-284,2478,9375
2526,1128211,17328,-794,-4094,-539,-50,55,-176914,24870,100950,7,13049,2673,-46770,363252,165,-285,2477,9376
2537,1128223,17360,-810,-4004,-539,-42,45,-176396,25509,100911,7,13048,2672,-46772,363311,166,-285,2476,9375
2549,1128234,17304,-812,-4018,-535,-49,51,-175873,26148,100866,7,13049,2671,-46776,363369,165,-285,2476,9375
2560,1128245,17326,-842,-4048,-536,-45,50,-175347,26786,100814,7,13053,2672,-46784,363428,165,-286,2476,9376
2571,1128256,17314,-864,-4004,-528,-43,52,-174818,27424,100754,7,13052,2676,-46793,363488,165,-285,2477,9376
2582,1128267,17336,-828,-3930,-532,-43,52,-174284,28062,100688,7,13045,2677,-46797,363548,165,-284,2477,9374
2593,1128279,17376,-876,-3974,-539,-40,50,-173746,28700,100615,7,13041,2681,-46809,363606,166,-283,2477,9374
2605,1128290,17338,-840,-4070,-537,-45,48,-173204,29338,100535,7,13046,2682,-46818,363662,165,-284,2478,9375
2617,1128301,17314,-822,-4006,-532,-46,51,-172656,29974,100447,7,13047,2681,-46822,363720,165,-284,2478,9375
2627,1128312,17366,-806,-3958,-535,-46,54,-172104,30611,100352,7,13042,2680,-46821,363779,165,-283,2477,9373
2638,1128324,17354,-864,-3962,-540,-40,58,-171547,31246,100249,7,13038,2684,-46832,363836,166,-282,2477,9373
2650,1128335,17316,-850,-3976,-530,-42,49,-170984,31881,100137,7,13035,2686,-46840,363890,165,-281,2477,9372
2661,1128346,17350,-862,-3956,-538,-47,47,-170416,32516,100018,7,13031,2688,-46849,363945,165,-280,2478,9372
2672,1128357,17398,-864,-4006,-540,-43,52,-169842,33150,99891,7,13030,2691,-46860,363997,165,-279,2478,9372
2683,1128368,17328,-844,-3994,-540,-37,47,-169267,33779,99757,7,13029,2692,-46868,364047,165,-279,2478,9372
2694,1128380,17316,-826,-4026,-531,-42,48,-168685,34406,99613,7,13031,2692,-46872,364097,165,-279,2478,9372
2705,1128391,17360,-808,-4058,-535,-39,47,-168096,35033,99460,7,13034,2689,-46874,364149,166,-280,2478,9372
2716,1128402,17330,-846,-4056,-533,-43,46,-167500,35659,99298,7,13038,2690,-46884,364203,165,-281,2478,9373
2728,1128413,17362,-816,-4046,-534,-46,49,-166897,36283,99127,7,13041,2689,-46887,364259,165,-281,2478,9373
2739,1128424,17362,-816,-4054,-537,-38,47,-166288,36906,98947,7,13044,2688,-46891,364317,165,-282,2477,9374
2750,1128435,17344,-786,-4052,-542,-37,45,-165671,37528,98757,7,13047,2683,-46892,364375,165,-283,2477,9374
2761,1128446,17350,-830,-4058,-538,-46,52,-165045,38148,98557,7,13050,2684,-46898,364435,165,-283,2477,9374
2772,1128457,17394,-824,-3956,-526,-43,44,-164409,38767,98345,7,13045,2683,-46901,364495,165,-282,2476,9373
2783,1128469,17344,-840,-4008,-535,-45,43,-163766,39385,98124,7,13045,2683,-46908,364554,166,-282,2476,9373
2794,1128480,17320,-792,-4012,-543,-49,46,-163113,40001,97892,7,13046,2680,-46908,364613,165,-282,2475,9373
2806,1128491,17372,-846,-3992,-543,-45,45,-162451,40615,97648,7,13044,2681,-46917,364672,169,-281,2475,9373
2817,1128502,17338,-832,-3982,-537,-36,45,-161779,41228,97392,7,13041,2681,-46923,364730,165,-281,2475,9372
2828,1128513,17336,-876,-3948,-531,-45,50,-161097,41838,97124,7,13036,2685,-46937,364787,165,-279,2476,9372
2839,1128524,17312,-866,-3964,-544,-40,49,-160404,42446,96845,7,13032,2688,-46950,364843,165,-278,2477,9372
2850,1128535,17326,-832,-3946,-537,-43,45,-159700,43052,96552,7,13027,2688,-46953,364897,165,-277,2476,9371
2861,1128547,17376,-832,-3964,-542,-45,45,-158984,43655,96246,7,13023,2688,-46957,364950,166,-276,2476,9370
2872,1128558,17376,-786,-3992,-549,-41,42,-158257,44257,95927,7,13022,2683,-46950,365001,165,-276,2475,9368
2884,1128569,17296,-826,-4022,-535,-43,53,-157517,44854,95593,7,13024,2684,-46954,365050,165,-276,2475,9368
2895,1128580,17368,-796,-3960,-537,-41,47,-156764,45449,95245,7,13020,2681,-46950,365101,165,-275,2474,9367
2906,1128591,17356,-810,-4072,-541,-41,47,-155997,46042,94882,7,13025,2679,-46949,365148,165,-276,2473,9366
2917,1128602,17326,-786,-4004,-540,-54,40,-155215,46631,94503,7,13026,2674,-46944,365195,165,-276,2472,9365
2928,1128613,17348,-840,-4006,-527,-40,49,-154419,47216,94106,7,13026,2676,-46951,365238,165,-276,2472,9366
2939,1128625,17330,-820,-4070,-537,-39,48,-153608,47798,93695,7,13031,2675,-46952,365283,166,-277,2472,9366
2950,1128636,17314,-808,-4046,-540,-51,52,-152781,48377,93267,7,13035,2674,-46951,365327,166,-278,2471,9366
2961,1128647,17382,-830,-4060,-539,-44,52,-151938,48951,92821,7,13039,2674,-46955,365371,165,-279,2471,9366
2973,1128658,17358,-850,-4032,-533,-45,49,-151077,49521,92355,7,13040,2676,-46963,365414,165,-279,2472,9366
2984,1128669,17348,-818,-3976,-539,-48,49,-150198,50087,91872,7,13038,2675,-46969,365459,165,-278,2471,9366
2995,1128680,17394,-834,-4038,-540,-46,42,-149302,50648,91369,7,13039,2675,-46975,365505,165,-278,2471,9366
3006,1128691,17366,-826,-4044,-543,-43,42,-148386,51206,90845,7,13042,2674,-46979,365552,165,-279,2471,9366
3017,1128702,17318,-818,-4032,-539,-40,46,-147451,51757,90301,7,13044,2673,-46983,365597,165,-279,2471,9366
3028,1128714,17368,-800,-4026,-539,-38,53,-146496,52303,89736,7,13044,2671,-46985,365643,166,-279,2470,9365
3039,1128725,17340,-822,-4040,-533,-42,45,-145518,52844,89147,7,13046,2671,-46988,365687,165,-279,2470,9365
3051,1128736,17348,-770,-4100,-542,-41,53,-144520,53378,88537,7,13053,2666,-46982,365730,165,-281,2469,9365
3062,1128747,17338,-848,-4010,-544,-48,46,-143498,53907,87903,7,13053,2668,-46991,365765,165,-281,2469,9365
3073,1128758,17350,-820,-4012,-543,-45,48,-142453,54429,87244,7,13053,2667,-46998,365804,165,-281,2469,9365
3084,1128769,17342,-804,-4062,-541,-49,46,-141383,54944,86560,7,13058,2665,-46999,365844,165,-281,2469,9366
3095,1128780,17304,-854,-3944,-540,-38,48,-140288,55452,85850,7,13052,2668,-47015,365879,165,-280,2469,9365
3106,1128792,17354,-888,-4016,-538,-39,48,-139167,55952,85113,7,13051,2673,-47026,365924,166,-280,2470,9365
3117,1128803,17364,-882,-3908,-542,-39,52,-138021,56444,84349,7,13042,2678,-47043,365973,165,-278,2471,9365
3129,1128814,17392,-842,-4042,-537,-44,54,-136846,56927,83557,7,13044,2680,-47050,366027,165,-278,2471,9365
3140,1128825,17316,-850,-4128,-541,-52,54,-135643,57402,82737,7,13054,2682,-47057,366081,165,-280,2472,9366
3151,1128836,17368,-864,-4046,-536,-48,47,-134410,57867,81886,7,13057,2684,-47064,366137,165,-280,2473,9366
3162,1128847,17368,-840,-4008,-541,-43,41,-133148,58324,81004,7,13056,2684,-47071,366194,165,-280,2473,9366
3173,1128858,17370,-878,-4006,-544,-42,43,-131856,58770,80091,7,13055,2688,-47080,366252,165,-279,2473,9366
3184,1128870,17332,-848,-4008,-542,-42,48,-130533,59205,79148,7,13054,2689,-47087,366310,166,-279,2473,9366
3195,1128881,17318,-820,-4030,-548,-50,48,-129177,59630,78172,7,13056,2688,-47093,366368,165,-280,2473,9366
3206,1128892,17350,-864,-3978,-538,-39,54,-127791,60042,77164,7,13053,2691,-47101,366427,165,-279,2474,9365
3218,1128903,17370,-786,-4048,-534,-40,48,-126371,60441,76122,7,13055,2687,-47103,366486,165,-279,2473,9365
3229,1128914,17364,-818,-4044,-540,-44,42,-124918,60829,75047,7,13057,2686,-47108,366544,165,-279,2472,9366
3240,1128925,17342,-888,-3974,-535,-37,49,-123433,61202,73938,7,13053,2691,-47117,366602,165,-279,2473,9365
3251,1128936,17326,-854,-3932,-542,-44,41,-121913,61563,72795,7,13046,2692,-47123,366660,165,-277,2473,9364
3262,1128947,17342,-818,-4014,-539,-46,54,-120361,61908,71620,7,13047,2691,-47126,366717,165,-277,2473,9363
3273,1128959,17334,-826,-4020,-544,-48,48,-118775,62239,70412,7,13048,2690,-47132,366773,166,-277,2473,9363
3284,1128970,17382,-832,-4036,-543,-48,45,-117157,62553,69170,7,13050,2690,-47137,366830,165,-277,2473,9363
3296,1128981,17340,-858,-3988,-540,-42,46,-115506,62852,67894,7,13047,2692,-47146,366887,165,-277,2473,9363
3307,1128992,17346,-818,-4020,-538,-45,45,-113823,63133,66587,7,13048,2690,-47149,366944,165,-277,2472,9363
3318,1129003,17336,-828,-4010,-544,-42,42,-112109,63398,65249,7,13048,2689,-47155,367000,165,-276,2472,9363
3329,1129014,17340,-822,-3992,-539,-38,47,-110367,63644,63881,7,13046,2688,-47159,367057,165,-276,2472,9362
3340,1129025,17358,-824,-3988,-539,-40,49,-108595,63871,62485,7,13043,2688,-47163,367112,165,-275,2472,9362
3351,1129037,17372,-762,-3976,-538,-41,50,-106797,64079,61062,7,13040,2682,-47157,367167,166,-275,2470,9360
3362,1129048,17404,-792,-3974,-539,-37,40,-104973,64267,59612,7,13035,2678,-47157,367216,165,-274,2469,9359
3374,1129059,17342,-860,-4010,-536,-45,41,-103124,64436,58138,7,13036,2680,-47169,367260,165,-274,2469,9360
3385,1129070,17348,-814,-4040,-537,-49,45,-101254,64583,56644,7,13039,2679,-47170,367309,165,-274,2469,9360
3396,1129081,17352,-850,-4068,-540,-45,47,-99366,64710,55132,7,13043,2680,-47177,367356,165,-275,2469,9360
3407,1129092,17316,-806,-3924,-532,-34,49,-97476,64814,53615,7,13035,2679,-47182,367405,165,-273,2469,9359
3418,1129103,17344,-846,-3974,-537,-40,49,-95573,64898,52084,7,13032,2680,-47193,367452,165,-272,2469,9359
3429,1129114,17398,-852,-4024,-535,-38,45,-93659,64959,50542,7,13032,2682,-47202,367501,165,-272,2469,9359
3440,1129125,17416,-828,-3956,-535,-39,44,-91737,64999,48993,7,13026,2681,-47208,367552,165,-271,2469,9359
3451,1129136,17384,-832,-4050,-530,-50,47,-89809,65016,47439,7,13030,2681,-47212,367602,165,-272,2469,9359
3462,1129147,17366,-828,-3964,-537,-46,48,-87878,65012,45883,7,13026,2681,-47219,367651,165,-271,2469,9358
3473,1129158,17346,-850,-3988,-537,-40,50,-85950,64986,44328,7,13024,2683,-47230,367700,165,-270,2469,9358
3484,1129170,17328,-854,-4048,-538,-40,40,-84023,64938,42775,7,13028,2684,-47240,367749,167,-271,2470,9359
3495,1129181,17368,-812,-4064,-543,-45,43,-82102,64868,41229,7,13032,2682,-47240,367803,166,-272,2469,9359
3506,1129192,17336,-852,-4080,-541,-42,48,-80192,64777,39695,7,13038,2684,-47249,367856,166,-273,2470,9360
3517,1129203,17352,-828,-4018,-538,-41,51,-78296,64664,38174,7,13038,2684,-47254,367912,169,-273,2470,9360
3528,1129214,17316,-824,-4004,-536,-44,47,-76412,64529,36666,7,13039,2683,-47258,367968,165,-273,2469,9360
3539,1129225,17356,-788,-3988,-537,-38,51,-74548,64373,35179,7,13036,2680,-47258,368024,165,-272,2468,9359
3550,1129236,17312,-808,-3998,-535,-42,47,-72703,64196,33711,7,13036,2678,-47260,368077,165,-272,2468,9359
3561,1129247,17396,-808,-4032,-530,-43,48,-70880,63998,32266,7,13036,2677,-47261,368130,165,-272,2467,9358
3573,1129258,17354,-842,-4032,-526,-42,50,-69082,63781,30847,7,13038,2678,-47267,368181,165,-272,2467,9359
3584,1129269,17318,-818,-4080,-534,-43,44,-67308,63544,29451,7,13044,2677,-47267,368233,165,-274,2467,9359
3595,1129280,17318,-806,-3994,-543,-41,57,-65562,63290,28086,7,13043,2676,-47272,368283,165,-273,2467,9359
3606,1129291,17326,-822,-3982,-545,-44,46,-63843,63016,26747,7,13041,2675,-47280,368333,165,-273,2466,9358
3617,1129302,17282,-826,-4036,-536,-54,42,-62152,62724,25438,7,13045,2675,-47283,368383,165,-273,2466,9358
3628,1129313,17350,-846,-4012,-532,-37,47,-60494,62415,24162,7,13045,2676,-47291,368434,165,-273,2467,9359
3639,1129324,17376,-828,-4032,-538,-40,48,-58868,62089,22918,7,13045,2676,-47296,368487,165,-273,2467,9359
3650,1129335,17352,-800,-4094,-541,-47,41,-57271,61747,21705,7,13052,2673,-47294,368539,165,-275,2466,9359
3661,1129346,17386,-846,-3958,-544,-48,46,-55707,61389,20526,7,13047,2674,-47307,368589,165,-273,2466,9359
3672,1129357,17390,-810,-3988,-537,-44,43,-54175,61015,19380,7,13045,2672,-47314,368642,165,-273,2466,9358
3683,1129368,17332,-806,-4004,-535,-42,49,-52677,60627,18269,7,13044,2671,-47318,368695,165,-272,2465,9358
3694,1129380,17316,-862,-4004,-531,-41,44,-51210,60224,17190,7,13044,2673,-47328,368746,165,-272,2466,9358
3705,1129391,17358,-814,-3982,-537,-47,47,-49775,59808,16143,7,13041,2672,-47335,368800,166,-272,2466,9358
3716,1129402,17378,-844,-3974,-536,-40,45,-48372,59379,15131,7,13037,2673,-47347,368855,166,-271,2466,9358
3727,1129413,17394,-814,-4046,-537,-46,41,-47001,58938,14150,7,13040,2672,-47348,368910,166,-271,2465,9358
3738,1129424,17312,-842,-3976,-530,-48,42,-45660,58483,13202,7,13038,2673,-47358,368964,165,-270,2466,9358
3749,1129435,17324,-830,-4054,-541,-45,46,-44349,58019,12285,7,13042,2673,-47362,369020,165,-271,2466,9358
3760,1129446,17434,-834,-4024,-539,-41,50,-43070,57543,11400,7,13041,2673,-47369,369077,165,-271,2466,9358
3771,1129457,17398,-854,-3900,-536,-41,50,-41821,57057,10546,7,13031,2675,-47386,369133,165,-269,2466,9358
3782,1129468,17340,-840,-3962,-537,-42,48,-40598,56560,9721,7,13027,2677,-47396,369188,165,-268,2466,9358
3793,1129479,17368,-852,-4054,-547,-48,52,-39412,56058,8931,7,13031,2679,-47406,369242,165,-268,2466,9358
3804,1129490,17366,-858,-3992,-542,-53,46,-38252,55547,8168,7,13030,2681,-47418,369298,165,-268,2467,9358
3815,1129501,17340,-836,-4020,-544,-46,50,-37118,55027,7433,7,13032,2681,-47425,369353,165,-268,2467,9358
3826,1129512,17356,-832,-4062,-539,-50,47,-36009,54498,6725,7,13036,2681,-47430,369409,165,-269,2467,9359
3837,1129523,17322,-834,-4038,-539,-50,43,-34925,53961,6042,7,13040,2681,-47435,369466,165,-269,2467,9359
3848,1129534,17386,-828,-4022,-539,-41,49,-33865,53416,5385,8,13040,2681,-47441,369524,165,-269,2467,9359
3859,1129545,17310,-836,-4012,-535,-52,45,-32827,52864,4753,7,13041,2681,-47447,369582,166,-269,2467,9359
3870,1129556,17394,-832,-3994,-542,-38,46,-31812,52305,4144,7,13038,2681,-47453,369641,166,-268,2467,9359
3881,1129567,17374,-812,-4032,-548,-44,52,-30818,51739,3558,7,13040,2680,-47456,369699,166,-269,2466,9359
3892,1129578,17364,-844,-4000,-541,-43,44,-29845,51167,2994,7,13039,2681,-47465,369758,166,-268,2467,9358
3903,1129589,17316,-848,-3930,-542,-52,54,-28891,50588,2452,7,13033,2683,-47476,369816,165,-267,2467,9358
3914,1129599,17354,-856,-4012,-543,-51,50,-27956,50004,1931,7,13034,2685,-47487,369871,165,-267,2467,9358
3925,1129610,17326,-840,-3960,-532,-47,43,-27040,49412,1432,7,13030,2686,-47493,369927,165,-266,2467,9358
3936,1129621,17332,-774,-4022,-530,-39,39,-26143,48815,952,7,13031,2680,-47485,369980,165,-266,2466,9357
3947,1129632,17374,-818,-4000,-536,-47,41,-25270,48218,494,7,13030,2679,-47488,370035,165,-266,2465,9356
3957,1129643,17362,-794,-4024,-535,-50,47,-24412,47616,56,7,13032,2676,-47485,370090,165,-266,2465,9355
3968,1129654,17360,-842,-4012,-539,-47,45,-23577,47015,-362,7,13032,2676,-47494,370143,165,-266,2465,9356
3979,1129665,17360,-816,-3942,-535,-47,46,-22744,46399,-769,7,13027,2675,-47500,370197,165,-264,2464,9355
3990,1129676,17386,-862,-4014,-533,-45,48,-21926,45779,-1159,7,13027,2678,-47512,370250,165,-264,2465,9355
4001,1129687,17372,-794,-4048,-543,-38,49,-21116,45150,-1536,7,13029,2675,-47508,370304,165,-265,2464,9355
4013,1129698,17360,-812,-4026,-537,-41,53,-20320,44517,-1897,7,13030,2674,-47510,370358,165,-265,2464,9354
4024,1129709,17366,-794,-4042,-539,-40,48,-19537,43879,-2242,7,13032,2671,-47507,370411,165,-265,2463,9354
4035,1129720,17372,-804,-4020,-541,-48,40,-18766,43238,-2573,7,13033,2669,-47508,370463,165,-265,2462,9353
4046,1129731,17314,-850,-4030,-539,-47,40,-18006,42592,-2889,7,13036,2670,-47516,370512,165,-266,2463,9354
4057,1129742,17308,-804,-4000,-542,-48,44,-17259,41943,-3190,7,13036,2668,-47519,370563,165,-266,2462,9353
4068,1129753,17324,-812,-3986,-536,-44,42,-16523,41290,-3478,7,13035,2666,-47524,370614,165,-265,2462,9353
4079,1129764,17378,-782,-3992,-539,-51,46,-15798,40635,-3751,7,13033,2662,-47525,370664,165,-265,2461,9353
4090,1129775,17374,-854,-4032,-531,-41,46,-15085,39977,-4011,7,13035,2665,-47534,370711,165,-265,2461,9353
4101,1129786,17332,-840,-4106,-536,-43,51,-14380,39316,-4259,7,13043,2666,-47532,370761,165,-266,2461,9353
4112,1129797,17374,-846,-4044,-533,-48,47,-13686,38652,-4493,7,13045,2668,-47538,370811,165,-267,2462,9353
4123,1129808,17366,-764,-4064,-538,-47,47,-13000,37986,-4717,7,13049,2663,-47534,370862,165,-267,2460,9353
4134,1129820,17340,-872,-4038,-539,-45,43,-12322,37316,-4929,7,13051,2666,-47542,370907,166,-268,2461,9353
4145,1129831,17310,-854,-3964,-540,-41,52,-11654,36645,-5129,7,13048,2669,-47555,370955,166,-267,2462,9353
4156,1129842,17356,-852,-3976,-549,-41,45,-10993,35970,-5319,7,13044,2671,-47567,371007,166,-266,2462,9353
4167,1129853,17344,-890,-4036,-543,-45,46,-10339,35294,-5498,7,13046,2676,-47580,371061,166,-266,2463,9353
4178,1129864,17268,-834,-3990,-538,-35,45,-9694,34614,-5666,7,13045,2677,-47587,371118,165,-266,2463,9353
4189,1129875,17346,-870,-3972,-539,-41,43,-9060,33939,-5823,7,13042,2680,-47599,371176,165,-265,2464,9353
4200,1129886,17430,-782,-4032,-544,-34,46,-8435,33262,-5969,7,13041,2675,-47598,371235,166,-265,2463,9352
4211,1129897,17352,-842,-3986,-530,-40,51,-7815,32583,-6105,7,13039,2677,-47606,371291,166,-265,2463,9352
4222,1129908,17342,-818,-4024,-540,-48,49,-7200,31902,-6232,7,13040,2676,-47610,371348,169,-265,2463,9352
4233,1129919,17378,-794,-4044,-549,-46,48,-6590,31219,-6351,7,13043,2673,-47611,371405,166,-265,2462,9352
4244,1129930,17338,-818,-4000,-546,-45,51,-5986,30535,-6461,7,13042,2672,-47617,371460,165,-265,2462,9352
4255,1129940,17314,-812,-4024,-537,-42,45,-5387,29849,-6561,7,13043,2671,-47620,371514,165,-265,2461,9352
4266,1129951,17320,-830,-4070,-537,-42,46,-4793,29162,-6652,7,13049,2671,-47622,371568,165,-266,2462,9352
4277,1129962,17322,-876,-4034,-531,-46,42,-4204,28473,-6735,7,13051,2675,-47631,371623,165,-266,2462,9352
4288,1129973,17358,-800,-4004,-535,-47,47,-3620,27783,-6808,7,13050,2673,-47635,371680,165,-266,2462,9352
4299,1129984,17332,-802,-4018,-535,-48,47,-3040,27091,-6874,7,13051,2670,-47638,371735,165,-266,2461,9352
4310,1129995,17366,-814,-4024,-532,-39,46,-2465,26399,-6932,7,13051,2669,-47642,371790,165,-266,2461,9352
4321,1130006,17360,-840,-4046,-538,-48,46,-1892,25706,-6982,7,13054,2670,-47648,371845,165,-266,2461,9352
4332,1130017,17340,-814,-4068,-534,-46,41,-1323,25012,-7024,7,13058,2669,-47650,371900,165,-267,2461,9352
4343,1130028,17318,-840,-4038,-539,-42,44,-758,24316,-7059,7,13061,2670,-47655,371954,165,-267,2461,9352
4353,1130039,17348,-836,-3986,-537,-40,46,-201,23626,-7086,7,13058,2670,-47663,372008,165,-267,2461,9352
4364,1130050,17354,-820,-3980,-535,-42,48,352,22934,-7105,7,13054,2670,-47671,372064,165,-266,2461,9352
4375,1130061,17328,-842,-4028,-541,-38,45,899,22247,-7118,7,13055,2671,-47677,372119,165,-266,2461,9352
4386,1130072,17404,-824,-4034,-539,-56,45,1445,21561,-7123,7,13057,2670,-47683,372175,165,-266,2461,9352
4397,1130082,17332,-808,-4020,-536,-40,50,1991,20867,-7122,7,13057,2669,-47687,372232,165,-266,2461,9352
4408,1130093,17344,-820,-4026,-533,-42,51,2535,20174,-7113,7,13058,2669,-47692,372288,165,-266,2460,9352
4418,1130104,17326,-822,-3942,-541,-42,48,3076,19479,-7097,7,13052,2668,-47703,372343,165,-265,2460,9352
4429,1130115,17352,-838,-4060,-539,-48,45,3617,18785,-7075,7,13056,2669,-47708,372400,165,-265,2460,9352
4440,1130126,17334,-828,-4014,-532,-45,43,4155,18089,-7046,7,13056,2669,-47713,372458,165,-265,2460,9352
4451,1130137,17362,-786,-4000,-541,-39,46,4690,17394,-7010,7,13054,2665,-47717,372515,165,-265,2460,9352
4462,1130148,17384,-836,-4066,-541,-37,44,5224,16699,-6968,7,13057,2666,-47722,372572,166,-266,2460,9352
4473,1130159,17332,-836,-3998,-540,-37,47,5757,16003,-6920,7,13055,2667,-47730,372628,166,-265,2460,9352
4484,1130169,17346,-822,-3974,-538,-48,46,6288,15306,-6864,7,13052,2666,-47738,372685,165,-264,2460,9351
4495,1130180,17364,-882,-3986,-537,-43,43,6817,14610,-6802,7,13049,2670,-47752,372743,165,-264,2461,9352
4505,1130191,17338,-836,-4072,-541,-42,46,7347,13914,-6734,7,13054,2671,-47757,372802,165,-265,2461,9352
4516,1130202,17344,-870,-4048,-534,-46,46,7875,13218,-6660,7,13057,2674,-47766,372862,165,-265,2461,9352
4527,1130213,17350,-846,-4016,-539,-46,47,8401,12521,-6579,7,13057,2676,-47773,372923,165,-265,2462,9352
4538,1130224,17310,-830,-4012,-543,-55,48,8927,11825,-6492,7,13058,2676,-47779,372984,165,-265,2462,9352
4549,1130235,17344,-796,-4008,-539,-45,43,9449,11127,-6398,7,13058,2673,-47783,373045,166,-264,2461,9352
4560,1130246,17386,-814,-4010,-529,-43,45,9970,10430,-6297,7,13057,2672,-47787,373105,166,-264,2461,9352
4571,1130256,17338,-850,-4022,-535,-44,48,10490,9734,-6191,7,13057,2674,-47794,373165,165,-264,2461,9352
4582,1130267,17358,-820,-4016,-536,-41,55,11007,9037,-6078,7,13057,2674,-47800,373226,165,-264,2461,9352
4593,1130278,17358,-808,-3976,-536,-43,46,11519,8339,-5959,7,13053,2672,-47804,373287,165,-263,2460,9351
4603,1130289,17366,-840,-3930,-543,-45,46,12027,7640,-5834,7,13046,2673,-47815,373346,165,-261,2460,9350
4614,1130300,17366,-864,-4040,-541,-45,48,12535,6943,-5703,7,13048,2675,-47826,373404,165,-262,2461,9351
4625,1130311,17314,-812,-4006,-540,-43,46,13035,6244,-5565,7,13048,2674,-47829,373463,165,-262,2460,9351
4636,1130322,17332,-810,-3958,-545,-48,48,13521,5546,-5421,7,13044,2672,-47834,373521,166,-261,2460,9350
4647,1130333,17334,-770,-4066,-542,-48,45,14004,4850,-5272,7,13049,2667,-47828,373579,166,-261,2459,9350
4658,1130343,17326,-790,-3980,-541,-42,51,14458,4163,-5115,7,13046,2665,-47831,373635,165,-261,2458,9349
4669,1130354,17380,-802,-3984,-539,-44,44,14890,3496,-4952,7,13044,2662,-47836,373690,165,-260,2457,9349
4680,1130365,17374,-850,-4018,-535,-48,44,15304,2860,-4784,7,13044,2664,-47846,373743,165,-260,2458,9349
4690,1130376,17302,-798,-4096,-531,-49,45,15713,2247,-4612,7,13052,2662,-47839,373797,165,-262,2457,9349
4701,1130387,17328,-806,-4024,-543,-42,47,16123,1659,-4438,7,13053,2660,-47842,373851,165,-262,2457,9349
4712,1130398,17358,-826,-4028,-537,-42,47,16538,1089,-4260,7,13054,2660,-47847,373903,165,-262,2457,9349
4723,1130409,17378,-836,-3892,-537,-39,47,16956,526,-4079,8,13043,2661,-47867,373956,165,-259,2457,9349
4734,1130419,17370,-842,-3964,-540,-49,39,17378,-23,-3896,7,13039,2662,-47881,374010,165,-258,2457,9349
4745,1130430,17318,-812,-3990,-533,-49,48,17803,-566,-3709,7,13038,2661,-47885,374063,165,-258,2457,9348
4756,1130441,17326,-858,-4026,-534,-39,52,18236,-1106,-3517,7,13040,2664,-47897,374117,165,-258,2457,9349
4767,1130452,17354,-860,-3970,-538,-43,50,18675,-1649,-3320,7,13036,2668,-47913,374172,165,-257,2458,9349
4777,1130463,17342,-842,-3988,-545,-47,46,19118,-2188,-3119,7,13035,2669,-47923,374227,165,-257,2458,9350
4788,1130474,17376,-852,-4028,-537,-46,44,19565,-2725,-2914,7,13036,2670,-47934,374280,165,-257,2459,9350
4799,1130485,17362,-776,-4006,-542,-50,40,20013,-3260,-2704,7,13036,2665,-47928,374334,165,-257,2458,9349
4810,1130496,17364,-806,-4018,-538,-40,46,20465,-3792,-2491,7,13036,2664,-47929,374389,165,-257,2457,9348
4821,1130507,17354,-818,-4004,-532,-46,46,20920,-4321,-2273,7,13036,2663,-47933,374443,165,-256,2457,9348
4832,1130518,17364,-826,-3950,-543,-38,47,21377,-4848,-2052,7,13030,2663,-47944,374498,165,-255,2457,9348
4843,1130529,17400,-858,-3954,-542,-40,47,21837,-5373,-1826,7,13025,2665,-47961,374550,165,-254,2457,9348
4854,1130540,17340,-862,-3990,-540,-46,48,22301,-5895,-1596,7,13024,2669,-47978,374599,165,-254,2458,9349
4865,1130551,17290,-902,-3954,-535,-43,51,22768,-6413,-1361,7,13020,2676,-48008,374645,165,-253,2460,9351
4876,1130562,17402,-768,-4036,-509,-53,60,23239,-6930,-1120,7,13022,2672,-47993,374680,165,-253,2458,9349
4887,1130573,17282,-860,-3912,-493,-51,47,23712,-7443,-873,7,13016,2676,-48007,374724,165,-251,2459,9349
4898,1130584,17306,-800,-4058,-466,-24,51,24183,-7949,-622,7,13019,2676,-47997,374759,166,-252,2458,9349
4909,1130594,17370,-800,-4062,-500,-19,56,24657,-8454,-369,7,13021,2675,-47989,374804,165,-253,2458,9348
4920,1130605,17362,-862,-4004,-513,-25,51,25135,-8958,-112,7,13019,2678,-48001,374855,169,-253,2458,9349
4930,1130616,17360,-794,-4066,-516,-52,41,25618,-9461,149,7,13025,2675,-47994,374904,165,-254,2457,9348
4941,1130627,17378,-824,-4042,-537,-64,40,26102,-9958,412,7,13029,2674,-47997,374958,165,-254,2457,9348
4952,1130638,17328,-756,-4124,-557,-63,30,26588,-10454,678,7,13040,2666,-47984,375012,165,-256,2456,9348
4963,1130649,17348,-830,-4072,-603,-52,36,27080,-10953,947,7,13046,2664,-47992,375070,166,-257,2456,9348
4974,1130660,17302,-826,-3998,-585,-47,36,27575,-11449,1222,7,13046,2663,-48002,375127,167,-257,2456,9348
4985,1130671,17372,-822,-3978,-554,-42,41,28077,-11946,1507,7,13043,2662,-48012,375185,166,-256,2456,9348
4996,1130681,17344,-830,-3956,-541,-50,43,28583,-12440,1797,7,13039,2662,-48023,375244,165,-255,2456,9348
5007,1130692,17322,-850,-3982,-536,-45,42,29094,-12931,2093,7,13037,2664,-48035,375301,165,-254,2456,9348
5018,1130703,17328,-840,-3996,-539,-34,42,29607,-13419,2394,7,13035,2665,-48044,375359,165,-254,2456,9348
5029,1130714,17376,-816,-3968,-544,-38,46,30124,-13905,2699,7,13031,2664,-48051,375416,165,-253,2456,9347
5040,1130725,17366,-846,-3988,-543,-38,43,30646,-14389,3010,7,13029,2665,-48062,375473,165,-253,2456,9347
5051,1130736,17366,-790,-4016,-544,-37,51,31171,-14870,3325,7,13028,2662,-48060,375528,165,-253,2456,9347
5062,1130747,17346,-822,-4034,-539,-42,45,31701,-15348,3646,7,13030,2662,-48064,375584,165,-253,2455,9347
5073,1130758,17342,-816,-4014,-542,-42,48,32235,-15823,3973,7,13031,2661,-48068,375640,165,-253,2455,9346
5084,1130769,17380,-780,-4024,-539,-43,45,32774,-16296,4305,7,13032,2657,-48065,375697,165,-253,2454,9346
5095,1130780,17368,-796,-4006,-536,-47,53,33317,-16766,4642,7,13031,2655,-48066,375752,165,-253,2453,9345
5106,1130791,17312,-804,-4010,-534,-46,48,33864,-17232,4986,7,13032,2654,-48068,375805,165,-253,2453,9345
5116,1130802,17278,-822,-3982,-544,-41,44,34416,-17696,5334,7,13031,2654,-48076,375857,165,-253,2453,9345
5127,1130813,17380,-846,-3970,-541,-43,48,34972,-18157,5688,7,13027,2656,-48091,375910,165,-252,2453,9345
5138,1130824,17354,-862,-4070,-537,-40,47,35534,-18614,6048,7,13032,2659,-48100,375965,165,-253,2454,9346
5149,1130835,17336,-834,-4052,-543,-34,49,36099,-19068,6414,7,13035,2660,-48105,376022,165,-253,2454,9346
5160,1130846,17352,-856,-3980,-542,-46,47,36670,-19520,6785,7,13033,2662,-48118,376081,165,-253,2455,9346
5171,1130857,17354,-800,-4004,-540,-50,43,37246,-19968,7162,7,13033,2660,-48120,376139,165,-252,2454,9346
5182,1130868,17340,-838,-3976,-540,-45,47,37827,-20413,7546,7,13030,2661,-48131,376197,165,-252,2455,9346
5193,1130879,17308,-820,-3964,-536,-42,44,38413,-20854,7935,7,13027,2661,-48138,376254,165,-251,2454,9346
5205,1130890,17290,-800,-4004,-540,-40,50,39003,-21291,8330,7,13028,2659,-48138,376311,165,-251,2454,9345
5215,1130901,17358,-820,-3992,-541,-43,50,39599,-21725,8731,7,13026,2659,-48145,376367,165,-251,2454,9345
5226,1130912,17300,-864,-3976,-540,-47,47,40201,-22155,9139,7,13025,2662,-48161,376423,165,-250,2454,9346
5237,1130923,17306,-782,-3980,-530,-39,51,40807,-22581,9553,7,13023,2659,-48158,376478,166,-250,2453,9345
5248,1130934,17362,-852,-4022,-530,-44,52,41420,-23003,9973,7,13024,2662,-48168,376534,166,-250,2454,9345
5259,1130945,17362,-804,-3964,-538,-40,50,42037,-23422,10400,7,13020,2660,-48172,376590,166,-249,2453,9344
5270,1130956,17290,-842,-4002,-533,-39,44,42666,-23840,10836,7,13021,2662,-48181,376644,166,-249,2454,9345
5281,1130967,17342,-818,-4062,-529,-41,44,43300,-24253,11280,7,13025,2661,-48182,376700,165,-250,2454,9345
5292,1130978,17370,-842,-3980,-535,-40,49,43940,-24663,11730,7,13022,2663,-48192,376758,165,-249,2454,9345
5303,1130989,17300,-852,-3984,-534,-43,43,44586,-25068,12186,7,13021,2665,-48204,376815,165,-249,2454,9345
5314,1131000,17330,-862,-4070,-535,-45,42,45239,-25468,12650,7,13027,2668,-48216,376871,165,-250,2455,9346
5325,1131011,17346,-836,-4054,-537,-48,48,45897,-25864,13119,7,13031,2669,-48223,376930,165,-251,2455,9347
5336,1131022,17378,-804,-4050,-542,-43,50,46562,-26256,13595,7,13034,2667,-48225,376990,165,-251,2455,9347
5347,1131033,17304,-880,-4012,-539,-49,43,47232,-26643,14078,7,13036,2671,-48238,377050,165,-251,2456,9347
5359,1131044,17350,-846,-4070,-543,-46,47,47909,-27025,14568,7,13041,2673,-48247,377111,165,-252,2456,9348
5370,1131055,17396,-848,-4008,-541,-43,43,48592,-27402,15065,7,13039,2674,-48254,377172,165,-252,2457,9348
5381,1131066,17324,-832,-3980,-536,-50,49,49282,-27774,15569,7,13038,2674,-48260,377232,165,-251,2457,9347
5392,1131077,17398,-820,-4022,-542,-40,47,49977,-28141,16079,7,13038,2673,-48264,377293,165,-251,2456,9347
5403,1131088,17360,-840,-4022,-543,-41,46,50678,-28503,16596,7,13038,2674,-48272,377353,165,-251,2456,9347
5414,1131099,17328,-782,-4002,-541,-45,43,51386,-28860,17121,7,13038,2670,-48272,377414,165,-251,2455,9347
5425,1131110,17334,-866,-4012,-539,-37,42,52101,-29211,17653,7,13038,2673,-48282,377476,165,-251,2456,9347
5436,1131121,17408,-830,-4008,-533,-40,45,52822,-29556,18192,7,13036,2673,-48287,377537,165,-250,2456,9347
5447,1131132,17318,-820,-4022,-539,-41,45,53549,-29895,18737,7,13038,2672,-48292,377598,165,-251,2456,9347
5458,1131144,17360,-804,-4064,-545,-37,43,54283,-30229,19290,7,13041,2669,-48297,377660,165,-251,2455,9347
5469,1131155,17308,-802,-4010,-544,-43,42,55023,-30558,19849,7,13042,2667,-48301,377722,166,-251,2455,9347
5480,1131166,17358,-798,-4036,-540,-53,48,55771,-30879,20415,7,13044,2664,-48304,377786,166,-252,2454,9347
5491,1131177,17402,-800,-3954,-539,-49,47,56525,-31195,20989,7,13039,2662,-48310,377849,166,-250,2454,9347
5502,1131188,17362,-844,-4006,-541,-47,41,57285,-31505,21569,7,13039,2663,-48319,377911,165,-250,2454,9347
5513,1131199,17320,-826,-3994,-536,-41,52,58051,-31807,22156,7,13038,2664,-48326,377973,165,-250,2454,9346
5524,1131210,17380,-820,-4058,-535,-42,49,58824,-32103,22750,7,13041,2663,-48329,378035,165,-250,2454,9347
5535,1131221,17352,-846,-3946,-542,-46,48,59603,-32393,23351,7,13035,2665,-48340,378097,165,-249,2454,9346
5546,1131232,17388,-822,-4018,-538,-38,50,60389,-32676,23959,7,13035,2665,-48346,378158,165,-249,2454,9346
5557,1131243,17354,-836,-4050,-539,-47,54,61181,-32952,24572,7,13038,2666,-48352,378219,165,-250,2454,9346
5568,1131254,17344,-852,-4060,-536,-42,50,61979,-33220,25193,7,13042,2669,-48359,378281,165,-250,2455,9347
5580,1131265,17322,-828,-4000,-544,-47,48,62784,-33483,25820,7,13042,2669,-48366,378344,165,-250,2455,9347
5591,1131276,17342,-852,-4028,-538,-42,46,63594,-33737,26454,7,13043,2671,-48374,378406,165,-250,2455,9347
5602,1131287,17372,-816,-4028,-535,-44,48,64411,-33984,27095,7,13044,2670,-48379,378469,165,-250,2455,9347
5613,1131298,17334,-840,-4012,-546,-46,44,65234,-34225,27742,7,13045,2671,-48386,378532,165,-250,2455,9347
5624,1131309,17354,-790,-3958,-537,-43,48,66063,-34458,28394,7,13040,2668,-48389,378595,169,-249,2454,9346
5635,1131320,17336,-834,-3972,-537,-39,47,66897,-34683,29054,7,13037,2668,-48397,378657,165,-248,2454,9346
5646,1131331,17358,-814,-4010,-537,-45,44,67738,-34900,29719,7,13037,2667,-48400,378719,165,-248,2454,9345
5657,1131342,17322,-810,-4002,-539,-46,47,68584,-35109,30390,7,13037,2666,-48404,378780,165,-248,2453,9345
5668,1131353,17328,-860,-4008,-531,-45,46,69435,-35309,31066,7,13037,2669,-48415,378841,165,-248,2454,9345
5679,1131365,17354,-824,-4076,-535,-48,50,70292,-35502,31748,7,13042,2669,-48419,378902,165,-249,2454,9346
5690,1131376,17336,-822,-3974,-534,-41,48,71154,-35687,32436,7,13039,2668,-48424,378965,166,-248,2454,9346
5701,1131387,17358,-832,-3984,-540,-42,47,72020,-35864,33128,7,13037,2669,-48432,379027,166,-248,2454,9345
5712,1131398,17304,-846,-4048,-536,-39,47,72891,-36032,33825,7,13040,2671,-48439,379088,166,-248,2454,9346
5723,1131409,17384,-826,-4008,-531,-43,48,73767,-36191,34528,7,13039,2671,-48444,379150,165,-248,2454,9346
5734,1131420,17304,-858,-3996,-537,-44,43,74648,-36342,35235,7,13039,2673,-48454,379212,165,-248,2454,9346
5745,1131431,17326,-820,-3950,-542,-41,46,75533,-36485,35946,7,13034,2672,-48459,379274,165,-247,2454,9345
5756,1131442,17318,-792,-4072,-541,-40,42,76422,-36619,36662,7,13040,2669,-48459,379334,165,-248,2453,9345
5767,1131453,17362,-806,-3978,-536,-45,37,77315,-36745,37383,7,13037,2666,-48463,379396,165,-247,2453,9345
5778,1131464,17388,-842,-3984,-531,-35,48,78212,-36860,38107,7,13033,2668,-48471,379458,165,-246,2453,9344
5789,1131475,17344,-792,-4012,-534,-47,44,79112,-36967,38834,7,13034,2665,-48471,379519,165,-246,2452,9344
5801,1131486,17334,-850,-4016,-533,-43,42,80016,-37065,39565,7,13035,2666,-48480,379579,165,-246,2453,9344
5812,1131497,17354,-802,-4030,-537,-46,43,80923,-37155,40299,7,13036,2664,-48482,379640,165,-247,2452,9344
5823,1131508,17372,-794,-4048,-538,-43,44,81832,-37235,41035,7,13039,2661,-48482,379702,165,-247,2451,9344
5834,1131519,17336,-778,-4022,-538,-50,43,82744,-37306,41774,7,13041,2657,-48482,379763,165,-247,2451,9344
5845,1131530,17304,-824,-4060,-534,-49,45,83659,-37367,42515,7,13046,2657,-48483,379822,165,-248,2451,9344
5856,1131541,17366,-826,-4060,-538,-51,46,84575,-37419,43258,7,13050,2657,-48486,379882,165,-249,2450,9344
5867,1131552,17350,-820,-4092,-561,-28,46,85492,-37464,44003,7,13055,2656,-48489,379942,165,-250,2450,9344
5878,1131563,17352,-822,-4004,-620,-41,42,86411,-37504,44749,7,13054,2654,-48503,379999,165,-250,2450,9344
5889,1131574,17384,-874,-3890,-584,-35,41,87331,-37532,45497,7,13043,2657,-48525,380058,165,-247,2451,9343
5900,1131586,17384,-856,-4040,-573,-39,46,88252,-37550,46245,7,13044,2659,-48536,380120,165,-247,2452,9343
5911,1131597,17340,-810,-4024,-592,-35,54,89173,-37560,46993,7,13045,2657,-48545,380182,166,-247,2451,9343
5922,1131608,17396,-866,-3968,-605,-40,52,90096,-37561,47742,7,13040,2660,-48563,380245,166,-246,2452,9343
5933,1131619,17332,-834,-3928,-594,-32,48,91018,-37552,48492,7,13033,2660,-48576,380307,166,-245,2452,9342
5944,1131630,17358,-856,-3938,-555,-35,51,91940,-37531,49241,7,13026,2662,-48590,380367,165,-244,2452,9342
5955,1131641,17352,-882,-3904,-536,-49,53,92863,-37498,49989,7,13018,2668,-48607,380425,165,-242,2453,9342
5966,1131652,17352,-836,-3920,-513,-60,54,93786,-37454,50736,7,13012,2670,-48609,380478,165,-240,2453,9340
5977,1131663,17318,-834,-4058,-471,-56,42,94707,-37397,51483,7,13018,2671,-48613,380527,165,-241,2453,9341
5988,1131674,17310,-764,-4034,-483,-40,44,95626,-37331,52228,7,13021,2666,-48598,380578,165,-242,2452,9340
5999,1131685,17356,-826,-4012,-522,-42,50,96544,-37259,52971,7,13021,2667,-48602,380634,165,-242,2452,9340
6010,1131696,17406,-796,-4014,-545,-50,48,97461,-37180,53713,7,13021,2664,-48601,380691,165,-241,2451,9339
6022,1131707,17392,-822,-4008,-541,-44,44,98375,-37091,54453,7,13021,2664,-48605,380747,165,-241,2451,9339
6033,1131718,17388,-834,-3922,-540,-44,49,99287,-36993,55190,7,13013,2664,-48615,380802,165,-240,2451,9338
6044,1131729,17344,-794,-4050,-539,-43,47,100197,-36885,55924,7,13017,2662,-48611,380854,165,-240,2450,9338
6055,1131740,17366,-816,-4060,-542,-50,44,101111,-36767,56661,7,13022,2660,-48612,380908,165,-241,2450,9338
6067,1131751,17332,-868,-4022,-533,-49,46,102023,-36639,57395,7,13024,2664,-48627,380962,165,-241,2451,9339
6077,1131763,17302,-836,-4028,-540,-40,43,102930,-36503,58125,7,13026,2665,-48635,381019,166,-242,2451,9339
6088,1131774,17334,-818,-3986,-536,-42,51,103833,-36357,58851,7,13025,2665,-48639,381078,165,-241,2451,9339
6099,1131785,17380,-860,-3994,-528,-39,53,104733,-36201,59573,7,13023,2668,-48650,381136,165,-241,2451,9339
6111,1131796,17286,-810,-3988,-537,-49,51,105629,-36037,60290,7,13023,2667,-48653,381194,165,-241,2451,9338
6122,1131807,17352,-832,-3998,-542,-44,47,106521,-35864,61004,7,13022,2668,-48660,381253,165,-240,2451,9338
6133,1131818,17352,-844,-4014,-539,-43,51,107409,-35682,61712,7,13023,2669,-48669,381311,165,-240,2451,9338
6144,1131829,17346,-826,-4064,-542,-37,45,108292,-35491,62417,7,13027,2669,-48675,381370,165,-241,2451,9339
6155,1131841,17364,-816,-4036,-539,-41,44,109171,-35291,63116,7,13029,2668,-48679,381431,166,-242,2451,9339
6166,1131852,17414,-798,-4028,-534,-43,49,110045,-35082,63810,7,13029,2665,-48679,381492,165,-242,2450,9339
6177,1131863,17330,-794,-3980,-542,-42,46,110913,-34866,64498,7,13027,2663,-48681,381553,165,-241,2449,9338
6188,1131874,17344,-830,-4030,-540,-40,49,111777,-34640,65180,7,13029,2663,-48687,381612,165,-241,2449,9338
6200,1131885,17382,-838,-4076,-541,-47,54,112635,-34407,65857,7,13034,2664,-48693,381671,165,-242,2450,9339
6211,1131896,17382,-826,-4076,-536,-40,43,113488,-34164,66528,7,13038,2664,-48697,381733,165,-243,2450,9339
6222,1131907,17312,-854,-3974,-533,-40,46,114334,-33913,67192,7,13036,2667,-48706,381794,165,-242,2450,9339
6233,1131919,17378,-858,-3962,-540,-31,44,115175,-33654,67851,7,13030,2669,-48716,381856,165,-241,2451,9338
6244,1131930,17344,-834,-4036,-542,-46,48,116011,-33388,68504,7,13033,2670,-48724,381918,167,-242,2451,9338
6255,1131941,17336,-836,-4032,-539,-42,53,116841,-33114,69149,7,13035,2671,-48731,381980,165,-242,2451,9339
6266,1131952,17342,-834,-3994,-538,-39,50,117664,-32831,69788,7,13033,2672,-48737,382043,165,-242,2451,9338
6278,1131963,17352,-802,-3998,-543,-45,52,118481,-32542,70421,7,13032,2670,-48740,382106,165,-241,2450,9338
6289,1131974,17360,-816,-4012,-542,-42,49,119293,-32245,71047,7,13032,2669,-48745,382169,165,-241,2450,9338
6300,1131985,17350,-818,-3986,-537,-43,49,120098,-31940,71665,7,13030,2668,-48750,382231,165,-241,2450,9338
6311,1131996,17364,-852,-4008,-538,-43,42,120897,-31627,72278,7,13030,2670,-48759,382292,165,-241,2450,9338
6322,1132008,17368,-852,-3988,-538,-47,49,121690,-31308,72883,7,13028,2672,-48768,382354,166,-240,2450,9337
6333,1132019,17328,-852,-3984,-539,-43,47,122477,-30981,73481,7,13027,2674,-48778,382416,169,-240,2451,9337
6344,1132030,17386,-802,-3986,-539,-42,47,123257,-30647,74073,7,13024,2672,-48779,382477,165,-239,2450,9337
6356,1132041,17374,-838,-3990,-548,-38,42,124031,-30307,74658,7,13022,2672,-48787,382538,165,-239,2450,9336
6367,1132052,17358,-826,-3994,-535,-42,40,124798,-29958,75235,7,13021,2671,-48791,382598,165,-238,2450,9336
6378,1132063,17348,-796,-4080,-536,-38,46,125558,-29604,75805,7,13026,2668,-48791,382657,165,-239,2449,9336
6390,1132074,17408,-898,-4004,-537,-42,51,126313,-29243,76367,7,13025,2674,-48807,382718,165,-239,2450,9337
6400,1132086,17302,-850,-3990,-538,-44,47,127061,-28876,76923,7,13024,2676,-48816,382779,166,-239,2451,9337
6411,1132097,17384,-852,-4026,-540,-41,47,127802,-28502,77471,7,13025,2678,-48825,382841,165,-239,2451,9337
6422,1132108,17320,-820,-3986,-544,-43,51,128537,-28123,78012,7,13024,2678,-48829,382902,165,-238,2451,9336
6433,1132119,17336,-832,-4016,-542,-42,43,129266,-27737,78546,7,13025,2677,-48836,382964,165,-239,2451,9337
6445,1132130,17404,-832,-3996,-530,-39,47,129988,-27345,79072,7,13023,2677,-48840,383026,165,-238,2451,9336
6456,1132141,17368,-810,-4018,-530,-40,50,130703,-26946,79591,7,13023,2676,-48841,383087,165,-238,2450,9336
6467,1132152,17386,-824,-4082,-535,-51,56,131413,-26543,80102,7,13029,2676,-48847,383149,165,-239,2450,9336
6478,1132164,17320,-832,-4072,-539,-45,53,132117,-26134,80606,7,13035,2677,-48854,383212,166,-240,2450,9337
6489,1132175,17352,-866,-4030,-537,-46,49,132814,-25719,81104,7,13037,2680,-48863,383276,166,-240,2451,9338
6500,1132186,17328,-798,-4040,-538,-35,51,133505,-25299,81594,7,13039,2678,-48868,383341,165,-241,2451,9338
6511,1132197,17402,-818,-3924,-536,-41,43,134190,-24872,82078,7,13031,2676,-48871,383406,165,-239,2450,9337
6523,1132208,17316,-886,-4034,-533,-44,44,134869,-24441,82555,7,13033,2681,-48884,383470,165,-239,2451,9337
6534,1132219,17330,-798,-3976,-541,-49,44,135543,-24004,83024,7,13031,2678,-48885,383534,165,-239,2450,9337
6545,1132230,17358,-836,-3984,-538,-52,43,136211,-23563,83487,7,13030,2678,-48891,383597,165,-238,2450,9336
6556,1132241,17322,-828,-3928,-538,-45,44,136872,-23116,83943,7,13024,2678,-48895,383660,165,-237,2450,9335
6567,1132253,17366,-840,-4008,-531,-47,47,137528,-22664,84391,7,13024,2679,-48902,383721,166,-237,2450,9335
6578,1132264,17320,-818,-3994,-530,-44,40,138178,-22207,84833,7,13023,2678,-48904,383782,165,-237,2450,9335
6589,1132275,17308,-826,-4050,-535,-43,48,138822,-21746,85267,7,13028,2678,-48910,383843,165,-237,2450,9335
6601,1132286,17386,-816,-4030,-543,-40,40,139461,-21281,85696,7,13029,2676,-48914,383905,165,-237,2449,9335
6612,1132297,17376,-818,-4022,-533,-35,45,140093,-20810,86118,7,13028,2675,-48918,383968,165,-238,2449,9335
6623,1132308,17366,-816,-4014,-533,-39,38,140721,-20335,86533,7,13028,2673,-48921,384030,165,-237,2449,9335
6634,1132319,17368,-828,-3976,-541,-50,47,141344,-19857,86941,7,13026,2673,-48928,384092,165,-237,2449,9334
6645,1132331,17318,-832,-3960,-537,-44,47,141962,-19373,87343,7,13022,2673,-48935,384153,166,-236,2448,9334
6656,1132342,17366,-834,-4016,-527,-39,42,142573,-18885,87738,7,13023,2673,-48940,384213,165,-236,2449,9334
6667,1132353,17358,-838,-4064,-525,-44,39,143180,-18393,88126,7,13027,2674,-48946,384274,165,-237,2449,9334
6678,1132364,17322,-850,-4000,-536,-35,54,143781,-17898,88508,7,13026,2676,-48955,384336,165,-237,2449,9334
6690,1132375,17322,-828,-4016,-533,-43,49,144379,-17399,88883,7,13027,2676,-48960,384399,165,-237,2449,9335
6701,1132386,17362,-804,-4006,-541,-49,48,144972,-16896,89253,7,13028,2674,-48963,384462,165,-237,2448,9334
6712,1132397,17348,-838,-3978,-538,-48,45,145560,-16390,89617,7,13026,2675,-48970,384524,165,-236,2449,9334
6723,1132409,17338,-804,-4026,-547,-45,45,146143,-15880,89975,7,13027,2673,-48973,384586,166,-236,2448,9334
6734,1132420,17320,-848,-4062,-532,-47,50,146722,-15366,90325,7,13033,2675,-48980,384648,167,-237,2448,9334
6745,1132431,17386,-830,-3992,-532,-49,48,147296,-14848,90670,7,13031,2675,-48985,384711,165,-237,2448,9334
6756,1132442,17352,-780,-4008,-530,-45,46,147866,-14327,91008,7,13031,2671,-48985,384774,165,-236,2447,9334
6768,1132453,17372,-828,-4028,-545,-47,54,148432,-13803,91342,7,13033,2671,-48991,384836,165,-237,2447,9334
6779,1132464,17370,-854,-4082,-542,-51,50,148994,-13276,91669,7,13039,2673,-48997,384898,165,-238,2448,9334
6790,1132475,17346,-858,-4056,-537,-40,46,149551,-12745,91991,7,13042,2676,-49005,384961,165,-238,2448,9334
6801,1132486,17344,-844,-4062,-540,-45,53,150105,-12212,92306,7,13046,2677,-49011,385025,165,-239,2449,9335
6812,1132498,17318,-852,-4004,-543,-45,57,150654,-11676,92616,7,13046,2680,-49019,385089,166,-239,2449,9335
6823,1132509,17366,-808,-4058,-548,-40,51,151200,-11136,92921,7,13049,2678,-49025,385153,165,-239,2448,9335
6834,1132520,17324,-832,-4058,-545,-41,50,151742,-10594,93220,7,13053,2679,-49032,385218,165,-240,2449,9336
6846,1132531,17358,-846,-4008,-543,-49,48,152281,-10048,93513,7,13053,2680,-49038,385283,165,-240,2449,9335
6857,1132542,17294,-812,-4098,-543,-45,49,152816,-9500,93801,7,13061,2678,-49045,385347,165,-241,2449,9337
6868,1132553,17358,-840,-4020,-542,-51,47,153344,-8953,94081,7,13062,2679,-49051,385411,165,-241,2449,9336
6879,1132564,17406,-852,-4050,-535,-51,49,153869,-8403,94355,7,13064,2681,-49057,385476,165,-241,2449,9336
6890,1132575,17316,-820,-3948,-538,-46,44,154390,-7850,94624,7,13059,2680,-49063,385539,165,-240,2449,9336
6901,1132586,17380,-808,-3996,-536,-48,49,154909,-7295,94888,7,13057,2678,-49069,385604,165,-239,2448,9336
6912,1132597,17342,-822,-4012,-537,-57,48,155425,-6737,95147,7,13057,2677,-49075,385668,165,-239,2448,9336
6923,1132608,17358,-822,-4052,-540,-47,50,155937,-6178,95400,7,13060,2677,-49081,385733,165,-240,2448,9336
6934,1132620,17366,-838,-4074,-540,-41,46,156446,-5615,95648,7,13064,2677,-49086,385798,166,-240,2448,9336
6945,1132631,17366,-802,-4054,-537,-28,45,156952,-5050,95892,7,13066,2675,-49092,385862,166,-241,2447,9337
6956,1132642,17294,-820,-4006,-532,-22,45,157454,-4483,96129,7,13064,2674,-49099,385926,166,-241,2447,9337
6967,1132653,17318,-834,-3978,-535,-43,44,157955,-3913,96362,7,13061,2675,-49106,385990,165,-240,2447,9337
6978,1132664,17360,-874,-4014,-535,-41,41,158454,-3341,96590,7,13060,2678,-49112,386055,165,-240,2448,9336
6989,1132675,17336,-830,-4022,-531,-47,44,158951,-2767,96813,7,13061,2678,-49117,386120,165,-240,2448,9336
7000,1132686,17374,-814,-4010,-541,-46,49,159446,-2192,97031,7,13060,2676,-49124,386186,165,-239,2448,9336
7011,1132697,17372,-842,-4006,-539,-46,46,159938,-1614,97245,7,13059,2677,-49131,386251,165,-239,2448,9336
7022,1132708,17364,-864,-4010,-535,-50,51,160429,-1035,97453,7,13058,2680,-49138,386317,165,-239,2448,9335
7033,1132719,17422,-840,-3994,-542,-38,51,160917,-453,97656,7,13055,2681,-49145,386382,165,-238,2448,9335
7044,1132730,17386,-844,-4026,-536,-39,46,161399,125,97853,7,13055,2682,-49151,386447,169,-238,2448,9335
7055,1132741,17354,-814,-3988,-537,-41,50,161876,701,98044,7,13052,2681,-49155,386511,165,-237,2448,9334
7066,1132752,17354,-844,-3980,-539,-44,46,162352,1279,98230,7,13049,2682,-49162,386575,165,-237,2448,9334
7077,1132763,17320,-814,-4016,-531,-38,47,162829,1864,98413,7,13049,2681,-49166,386639,166,-237,2447,9334
7088,1132774,17292,-820,-4066,-539,-40,43,163305,2450,98591,7,13054,2680,-49171,386702,166,-238,2447,9335
7099,1132785,17358,-800,-4018,-538,-47,46,163780,3037,98765,7,13055,2677,-49175,386766,166,-238,2447,9335
7110,1132796,17378,-820,-4024,-537,-43,45,164253,3627,98934,7,13055,2676,-49180,386831,166,-237,2446,9334
7121,1132807,17296,-810,-4022,-543,-45,43,164725,4218,99099,7,13056,2674,-49185,386894,166,-238,2446,9335
7132,1132817,17314,-800,-4054,-554,-36,46,165196,4810,99260,7,13060,2671,-49189,386958,165,-238,2446,9335
7143,1132828,17382,-766,-4092,-603,-5,61,165662,5401,99420,7,13062,2666,-49195,387021,165,-239,2445,9335
7154,1132839,17386,-892,-4034,-659,-26,76,166125,5987,99579,7,13062,2671,-49211,387082,165,-239,2445,9335
7165,1132850,17316,-816,-3992,-589,14,62,166588,6581,99729,7,13055,2670,-49223,387143,165,-239,2445,9335
7175,1132861,17362,-840,-4158,-570,54,59,167043,7172,99871,7,13059,2672,-49224,387206,165,-241,2445,9335
7186,1132872,17370,-756,-4090,-573,121,59,167492,7765,100010,7,13051,2666,-49234,387265,165,-242,2444,9337
7197,1132883,17372,-832,-4196,-704,239,46,167936,8367,100157,7,13042,2663,-49238,387324,165,-245,2444,9337
7209,1132894,17336,-596,-4322,-909,307,57,168371,8966,100318,7,13039,2638,-49288,387373,165,-250,2442,9344
7220,1132905,17388,-778,-4246,-1366,376,90,168793,9556,100511,7,13025,2623,-49332,387410,165,-254,2441,9342
7231,1132916,17386,-966,-3614,-1626,373,117,169215,10146,100724,7,12960,2622,-49453,387410,165,-247,2443,9339
7242,1132928,17358,-1032,-3624,-1413,379,88,169645,10753,100918,7,12896,2629,-49536,387460,166,-240,2446,9333
7254,1132939,17312,-1070,-3706,-961,371,71,170082,11371,101069,7,12841,2646,-49580,387522,165,-236,2450,9328
7265,1132950,17308,-854,-3900,-603,301,46,170527,11991,101184,7,12809,2648,-49592,387577,165,-235,2450,9327
7276,1132961,17396,-880,-3930,-542,219,49,170976,12609,101288,7,12786,2653,-49604,387631,165,-235,2451,9327
7287,1132972,17448,-864,-4100,-547,390,50,171411,13227,101388,7,12761,2656,-49643,387686,165,-237,2453,9332
7298,1132984,17418,-810,-4074,-572,667,53,171822,13845,101486,7,12712,2655,-49679,387744,166,-239,2454,9338
7309,1132995,17348,-840,-3940,-576,1025,42,172203,14466,101580,7,12627,2655,-49700,387793,165,-240,2455,9340
7321,1133006,17424,-794,-3960,-577,1176,41,172574,15092,101672,7,12530,2652,-49726,387838,165,-241,2455,9343
7332,1133017,17344,-844,-3752,-571,1261,39,172938,15719,101759,7,12413,2653,-49721,387868,165,-240,2455,9340
7343,1133028,17410,-828,-3840,-577,1252,40,173303,16347,101842,7,12306,2652,-49738,387913,165,-241,2455,9342
7354,1133040,17472,-790,-3918,-576,1266,31,173667,16976,101922,7,12206,2647,-49772,387955,167,-243,2455,9347
7365,1133051,17410,-814,-3764,-583,1441,29,174016,17606,101999,7,12082,2644,-49789,387972,165,-243,2456,9348
7377,1133062,17410,-836,-3704,-601,1647,27,174348,18237,102074,7,11940,2643,-49802,387984,165,-244,2456,9348
7388,1133073,17406,-792,-3580,-586,1782,34,174670,18868,102144,7,11780,2639,-49807,387994,165,-243,2455,9347
7399,1133085,17436,-804,-3514,-582,1821,62,174989,19497,102209,7,11615,2639,-49809,388015,165,-242,2454,9346
7410,1133096,17512,-856,-3596,-564,1795,113,175311,20122,102270,7,11462,2647,-49822,388050,165,-242,2455,9346
7422,1133107,17484,-886,-3570,-549,1861,170,175632,20748,102326,7,11304,2662,-49837,388083,165,-244,2456,9348
7433,1133118,17404,-836,-3496,-549,1941,162,175947,21376,102378,7,11140,2673,-49858,388106,165,-245,2457,9350
7444,1133130,17440,-842,-3486,-545,1942,145,176262,22005,102427,7,10978,2682,-49883,388119,167,-247,2458,9353
7456,1133141,17464,-832,-3420,-551,2043,132,176570,22636,102472,7,10806,2689,-49907,388112,165,-248,2459,9356
7467,1133152,17532,-838,-3466,-565,2296,149,176856,23266,102516,7,10619,2698,-49946,388091,165,-251,2460,9362
7478,1133164,17530,-900,-3332,-566,2815,171,177099,23895,102557,7,10383,2713,-49956,388020,166,-253,2461,9363
7490,1133175,17528,-864,-3232,-565,3144,161,177314,24524,102595,7,10118,2724,-49979,387946,165,-254,2462,9365
7501,1133186,17510,-818,-3090,-563,3417,162,177506,25154,102631,7,9825,2731,-50014,387843,165,-255,2462,9370
7512,1133197,17440,-898,-3034,-565,3542,156,177687,25780,102665,7,9528,2745,-50019,387681,165,-257,2463,9370
7523,1133209,17552,-896,-3072,-554,3675,109,177857,26411,102696,7,9229,2754,-50049,387553,166,-261,2465,9375
7534,1133220,17594,-866,-2964,-553,4010,42,177999,27047,102725,7,8900,2755,-50094,387375,165,-264,2467,9382
7545,1133231,17408,-858,-2798,-538,4338,55,178114,27679,102751,7,8546,2757,-50137,387031,165,-268,2469,9389
7557,1133242,17404,-896,-2646,-531,4482,71,178217,28309,102775,7,8177,2765,-50134,386549,165,-271,2470,9390
7568,1133253,17490,-884,-2540,-535,4592,27,178311,28943,102799,7,7798,2767,-50148,386134,165,-274,2471,9393
7579,1133264,17328,-938,-2550,-526,4804,15,178388,29578,102821,7,7419,2775,-50134,385623,165,-280,2474,9395
7590,1133276,17456,-896,-2258,-499,5031,-43,178447,30219,102839,7,6999,2773,-50120,385169,166,-283,2475,9394
7601,1133287,17682,-880,-2164,-487,5182,-72,178495,30868,102856,7,6563,2766,-50141,384841,165,-285,2476,9398
7613,1133298,17700,-944,-2156,-427,5646,-17,178506,31512,102866,7,6097,2770,-50126,384473,165,-289,2478,9400
7624,1133309,17658,-954,-1980,-308,6274,14,178470,32154,102865,7,5578,2778,-50084,384078,165,-294,2479,9400
7635,1133320,17532,-910,-1622,-174,6792,49,178398,32789,102850,7,5005,2788,-50014,383636,165,-296,2479,9395
7646,1133332,17178,-908,-1276,-43,7025,102,178313,33420,102822,7,4396,2806,-49793,383108,166,-295,2476,9371
7657,1133343,17088,-806,-1006,-39,6395,64,178283,34055,102795,7,3826,2807,-49712,382526,166,-291,2472,9362
7668,1133354,17128,-822,-922,-95,5970,65,178285,34685,102774,7,3307,2809,-49666,381989,165,-289,2471,9358
7679,1133365,16924,-786,-674,-153,5510,98,178324,35308,102757,7,2814,2809,-49599,381403,166,-284,2467,9349
7690,1133376,16912,-816,-692,-256,4779,93,178420,35936,102751,7,2404,2812,-49592,380799,165,-283,2467,9349
7701,1133387,17012,-780,-570,-368,4110,15,178566,36571,102754,7,2047,2803,-49631,380362,165,-282,2466,9353
7712,1133398,17322,-808,-786,-460,3599,-12,178750,37208,102766,7,1770,2795,-49753,380219,165,-287,2469,9372
7723,1133409,17438,-740,-702,-506,3575,-23,178937,37851,102779,7,1489,2779,-49929,380170,165,-292,2473,9396
7734,1133420,17304,-804,-666,-547,3787,20,179104,38490,102795,7,1200,2774,-50028,379723,165,-299,2475,9412
7745,1133431,17208,-856,-398,-562,3982,41,179255,39123,102810,7,879,2778,-50013,378729,165,-302,2476,9412
7756,1133442,17594,-926,-866,-559,4141,13,179391,39754,102823,7,590,2783,-49972,378148,169,-314,2478,9416
7767,1133453,17382,-866,-264,-554,5908,79,179382,40380,102834,7,117,2789,-49978,377452,165,-320,2479,9420
7778,1133464,17130,-860,-54,-545,6439,99,179329,41005,102844,7,-399,2798,-49961,376535,165,-324,2480,9421
7789,1133475,16844,-806,412,-526,6485,63,179273,41633,102852,7,-967,2798,-49987,375460,165,-320,2479,9420
7800,1133486,16538,-896,582,-547,5881,105,179267,42258,102863,7,-1492,2821,-49637,374426,165,-316,2472,9374
7811,1133497,16666,-822,686,-550,4987,47,179337,42898,102874,7,-1941,2823,-49577,373359,165,-312,2469,9363
7823,1133508,16834,-854,720,-550,4167,-8,179476,43538,102883,7,-2302,2824,-49516,372168,165,-311,2468,9354
7834,1133519,17036,-786,574,-557,3720,-3,179654,44178,102891,7,-2592,2815,-49702,370786,165,-315,2472,9378
7845,1133530,17108,-866,604,-558,3617,10,179843,44817,102896,7,-2867,2816,-49754,370414,165,-321,2475,9390
7856,1133541,17002,-914,796,-544,3651,24,-179967,45455,102897,7,-3159,2827,-49655,370045,165,-326,2476,9383
7867,1133552,17062,-868,862,-462,3926,22,-179790,46098,102884,7,-3473,2829,-49688,369325,165,-330,2478,9392
7878,1133564,17042,-752,860,-434,4050,29,-179618,46741,102865,7,-3786,2817,-50036,368689,166,-336,2486,9437
7889,1133575,17112,-770,858,-443,4216,31,-179459,47385,102844,7,-4102,2808,-50317,367763,165,-343,2493,9475
7900,1133586,17194,-782,890,-468,4480,9,-179323,48030,102823,7,-4435,2799,-50523,364824,165,-353,2499,9505
7911,1133597,17104,-766,1158,-499,4896,3,-179222,48671,102804,7,-4816,2788,-50758,359282,165,-359,2504,9535
7923,1133608,16940,-750,1318,-526,5286,32,-179156,49315,102786,7,-5236,2778,-51027,349570,165,-364,2510,9568
7934,1133619,16756,-816,1502,-530,5504,34,-179105,49965,102766,7,-5685,2779,-50987,334124,165,-369,2509,9566
7945,1133630,16640,-800,1714,-540,5440,32,-179049,50615,102746,7,-6142,2778,-51030,321395,165,-372,2510,9571
7956,1133642,16582,-814,1894,-564,5141,22,-178967,51266,102728,7,-6582,2779,-51017,309636,165,-372,2510,9569
7967,1133653,16372,-884,2188,-565,4179,18,-178800,51918,102706,7,-6975,2794,-50698,299519,165,-367,2503,9532
7979,1133664,16452,-834,2234,-567,3608,15,-178581,52571,102680,7,-7308,2798,-50620,295791,165,-364,2501,9520
7990,1133675,16420,-798,2278,-556,3079,4,-178310,53225,102648,7,-7589,2795,-50654,293382,165,-361,2501,9520
8001,1133687,16414,-824,2310,-557,2525,31,-177990,53872,102609,7,-7816,2798,-50622,291070,165,-359,2500,9515
8012,1133698,16436,-820,2346,-554,2032,14,-177617,54525,102563,7,-7999,2800,-50607,289367,165,-358,2500,9513
8023,1133709,16428,-782,2382,-552,1598,25,-177200,55178,102507,7,-8144,2796,-50672,288007,165,-357,2500,9516
8035,1133720,16422,-822,2414,-547,1199,29,-176739,55830,102441,7,-8255,2799,-50658,286412,165,-356,2500,9514
8046,1133731,16566,-838,2260,-549,861,18,-176240,56483,102364,7,-8308,2802,-50638,285197,165,-360,2501,9516
8057,1133743,16746,-768,2182,-540,1120,22,-175755,57131,102275,7,-8369,2794,-50747,284298,166,-368,2502,9528
8068,1133754,16656,-848,2270,-548,1367,57,-175279,57780,102176,7,-8460,2802,-50693,282772,165,-374,2502,9527
8080,1133765,16574,-806,2392,-546,1458,35,-174798,58432,102062,7,-8572,2801,-50733,281625,165,-377,2503,9532
8091,1133776,16696,-842,2268,-549,1458,28,-174306,59084,101937,7,-8663,2805,-50695,280442,165,-384,2504,9533
8102,1133787,16776,-838,2198,-559,1684,17,-173823,59736,101800,7,-8760,2806,-50680,279519,165,-394,2505,9538
8113,1133799,16766,-804,2280,-553,2072,20,-173359,60389,101649,7,-8896,2804,-50760,278610,166,-403,2507,9550
8124,1133810,16662,-858,2424,-555,2461,26,-172915,61040,101483,7,-9077,2809,-50659,277266,165,-410,2506,9545
8136,1133821,16642,-794,2538,-555,2728,19,-172480,61692,101303,7,-9289,2805,-50782,276318,165,-414,2509,9559
8147,1133832,16496,-838,2728,-554,2907,12,-172045,62344,101107,7,-9534,2808,-50722,274856,165,-416,2508,9554
8158,1133844,16498,-784,2734,-553,2871,-6,-171592,62997,100894,7,-9768,2801,-50858,273788,166,-418,2510,9567
8169,1133855,16474,-834,2798,-548,2900,-9,-171124,63650,100664,7,-10003,2802,-50802,272214,165,-422,2510,9564
8181,1133866,16346,-774,2924,-553,2963,10,-170640,64306,100414,7,-10257,2796,-50950,270969,165,-422,2512,9576
8192,1133877,16242,-816,3050,-547,2889,23,-170130,64960,100144,7,-10515,2798,-50929,269085,165,-421,2511,9573
8203,1133889,16150,-808,3140,-548,2627,28,-169576,65613,99852,7,-10756,2800,-50927,267572,165,-419,2511,9571
8214,1133900,16108,-816,3198,-548,2187,29,-168964,66259,99538,7,-10959,2803,-50900,266307,165,-417,2510,9567
8226,1133911,16296,-826,3102,-542,1758,7,-168288,66908,99195,7,-11098,2805,-50870,265412,165,-420,2511,9567
8237,1133922,16464,-794,3046,-542,1728,15,-167588,67548,98827,7,-11218,2801,-50938,264753,165,-426,2512,9575
8248,1133934,16404,-804,3046,-544,1963,28,-166872,68191,98425,7,-11353,2801,-50964,263831,166,-433,2512,9580
8259,1133945,16300,-740,3160,-544,2190,18,-166141,68833,97988,7,-11520,2790,-51172,262775,165,-437,2514,9596
8270,1133956,16214,-810,3308,-553,2312,26,-165385,69473,97516,7,-11713,2792,-51160,260582,165,-438,2514,9595
8282,1133967,16226,-778,3444,-551,2270,24,-164585,70112,97003,7,-11913,2789,-51263,258746,165,-437,2515,9601
8293,1133978,16170,-820,3468,-548,2179,24,-163733,70747,96445,7,-12103,2792,-51232,256432,165,-438,2515,9599
8304,1133990,16208,-800,3390,-553,2087,30,-162827,71380,95840,7,-12265,2793,-51232,254638,167,-442,2514,9599
8315,1134001,16286,-852,3426,-542,2074,27,-161863,72011,95178,7,-12422,2800,-51106,253059,165,-447,2514,9592
8327,1134012,16314,-804,3448,-553,2166,33,-160853,72637,94461,7,-12583,2800,-51121,252209,165,-452,2514,9595
8338,1134023,16216,-762,3576,-563,2552,29,-159813,73260,93681,7,-12790,2795,-51257,251310,165,-455,2515,9604
8349,1134035,16190,-790,3602,-561,2696,25,-158713,73880,92829,7,-13004,2793,-51291,249884,166,-459,2514,9606
8360,1134046,16238,-812,3706,-562,2833,7,-157546,74496,91897,7,-13233,2794,-51275,248444,165,-462,2514,9604
8371,1134057,16284,-794,3538,-563,2993,-5,-156315,75104,90886,7,-13441,2790,-51246,247223,165,-472,2513,9602
8383,1134068,16284,-794,3678,-554,3385,-21,-155007,75711,89765,7,-13693,2786,-51239,246132,165,-480,2512,9601
8394,1134079,16202,-798,3790,-555,3875,-5,-153625,76316,88529,7,-13995,2783,-51219,245038,165,-488,2511,9600
8405,1134091,16024,-788,3928,-573,4250,8,-152172,76908,87189,7,-14337,2782,-51235,243967,166,-493,2511,9601
8416,1134102,15860,-806,4154,-568,4388,19,-150611,77487,85728,7,-14712,2785,-51207,242877,165,-493,2511,9598
8428,1134113,15664,-756,4488,-561,3947,12,-148843,78060,84100,7,-15093,2779,-51410,242005,165,-484,2513,9611
8439,1134124,15590,-816,4550,-562,3506,23,-146868,78621,82301,7,-15433,2785,-51407,240691,165,-477,2514,9611
8450,1134135,15556,-778,4680,-558,3052,10,-144653,79169,80302,7,-15741,2784,-51507,239672,165,-468,2515,9614
8461,1134147,15604,-816,4670,-562,2584,22,-142180,79700,78083,8,-15995,2789,-51520,238395,165,-462,2516,9617
8472,1134158,15628,-792,4684,-562,2199,17,-139419,80213,75610,7,-16208,2790,-51559,237258,169,-457,2516,9617
8484,1134169,15642,-764,4710,-559,1932,22,-136348,80704,72850,7,-16392,2787,-51615,236093,165,-454,2515,9614
8495,1134180,15698,-774,4636,-552,1738,29,-132946,81167,69775,7,-16540,2786,-51630,234783,165,-455,2513,9609
8506,1134192,15750,-830,4576,-547,1672,20,-129185,81600,66347,7,-16666,2792,-51579,233557,166,-459,2514,9612
8517,1134203,15804,-796,4654,-549,1872,5,-125059,81997,62536,7,-16812,2791,-51565,232733,165,-463,2513,9610
8528,1134214,15796,-788,4648,-550,2125,16,-120604,82350,58371,7,-16970,2790,-51546,232065,165,-468,2512,9606
8540,1134225,15756,-830,4670,-559,2377,29,-115751,82658,53790,7,-17149,2797,-51481,231537,165,-474,2513,9606
8551,1134236,15736,-804,4796,-559,2592,11,-110526,82913,48817,7,-17356,2798,-51469,231251,165,-477,2512,9606
8562,1134248,15684,-750,4802,-560,2808,11,-104982,83108,43508,7,-17575,2791,-51515,231021,166,-482,2510,9601
8573,1134259,15610,-806,4894,-559,3029,4,-99187,83238,37928,7,-17819,2793,-51482,230699,165,-486,2510,9600
8584,1134270,15442,-812,4940,-571,3143,22,-93340,83299,32283,7,-18073,2798,-51440,230480,165,-489,2510,9600
8793,1134281,15420,-786,5226,-560,3158,13,-87393,83290,26539,7,-18360,2798,-51481,230339,165,-486,2510,9600
8795,1134292,15364,-820,5234,-562,2900,31,-81508,83212,20878,7,-18618,2805,-51467,230203,165,-484,2511,9602
8797,1134303,15386,-750,5244,-562,2845,23,-75796,83067,15394,7,-18861,2800,-51522,230127,165,-484,2509,9596
8798,1134314,15310,-776,5304,-571,2816,35,-70362,82859,10192,7,-19103,2801,-51547,229998,165,-484,2508,9594
8800,1134326,15188,-754,5456,-566,2735,34,-65262,82593,5330,7,-19356,2799,-51609,229862,166,-481,2506,9589
8801,1134337,15070,-798,5544,-564,2485,48,-60561,82277,886,7,-19593,2805,-51652,229650,166,-476,2508,9594
8803,1134348,15012,-798,5600,-556,2116,41,-56244,81917,-3144,7,-19799,2810,-51695,229386,166,-470,2509,9599
8804,1134359,15070,-766,5714,-544,1640,26,-52197,81510,-6859,7,-19975,2809,-51740,229031,165,-464,2507,9593
8806,1134370,15142,-766,5574,-553,1223,17,-48474,81067,-10216,7,-20087,2807,-51741,228566,165,-463,2505,9585
8807,1134381,15280,-782,5428,-544,1084,7,-45053,80588,-13255,7,-20157,2805,-51690,228143,165,-468,2502,9576
8809,1134392,15292,-842,5462,-543,1487,29,-42015,80088,-15948,7,-20260,2815,-51664,227928,165,-473,2506,9588
8811,1134403,15358,-808,5508,-521,1762,33,-39268,79559,-18371,7,-20385,2817,-51630,227811,165,-479,2506,9588
8813,1134415,15288,-768,5514,-509,2084,31,-36805,79011,-20538,7,-20536,2814,-51599,227771,166,-486,2503,9577
8815,1134426,15302,-808,5562,-480,2424,51,-34607,78445,-22468,7,-20715,2818,-51549,227767,165,-492,2502,9576
8817,1134437,15174,-738,5660,-484,2747,59,-32632,77867,-24203,7,-20933,2812,-51559,227780,165,-497,2498,9562
8818,1134448,15128,-788,5742,-485,2918,70,-30843,77277,-25766,7,-21170,2815,-51534,227779,165,-500,2496,9559
8820,1134460,15058,-822,5786,-451,3044,70,-29226,76676,-27168,7,-21417,2822,-51477,227776,167,-504,2497,9561
8822,1134471,15050,-752,5808,-433,3184,85,-27758,76065,-28433,7,-21670,2819,-51477,227747,165,-508,2494,9552
8823,1134482,14802,-834,6132,-473,3169,71,-26396,75448,-29591,7,-21966,2829,-51473,227708,165,-504,2497,9561
8825,1134493,14794,-770,6184,-478,3023,74,-25124,74824,-30646,7,-22246,2830,-51514,227700,165,-500,2496,9558
8827,1134504,14706,-796,6232,-467,2840,80,-23933,74193,-31605,7,-22511,2835,-51538,227723,165,-497,2497,9561
8830,1134516,14728,-740,6278,-469,2631,76,-22807,73557,-32481,8,-22753,2831,-51564,227753,165,-494,2493,9548
8841,1134527,14646,-790,6444,-479,2360,72,-21731,72916,-33283,7,-22989,2834,-51622,227772,165,-488,2494,9551
8853,1134538,14742,-782,6248,-463,2119,65,-20703,72268,-34016,7,-23166,2836,-51600,227734,165,-489,2493,9546
8864,1134549,14844,-764,6344,-433,2084,79,-19744,71617,-34677,7,-23340,2833,-51565,227720,165,-492,2489,9532
8875,1134561,14780,-818,6276,-423,2205,113,-18853,70964,-35279,7,-23511,2842,-51520,227731,166,-496,2490,9535
8886,1134572,14714,-814,6416,-417,2342,108,-18021,70302,-35832,7,-23711,2849,-51504,227760,165,-497,2491,9540
8898,1134583,14600,-760,6548,-446,2374,110,-17232,69638,-36345,7,-23928,2849,-51509,227790,165,-495,2488,9528
8909,1134595,14458,-790,6622,-461,2255,99,-16472,68970,-36819,7,-24144,2854,-51539,227816,166,-492,2488,9530
8920,1134606,14418,-778,6708,-485,2027,78,-15730,68304,-37257,7,-24345,2856,-51574,227823,165,-487,2488,9528
8931,1134617,14438,-808,6732,-479,1778,80,-15005,67635,-37658,7,-24519,2863,-51619,227789,165,-483,2490,9535
8943,1134628,14468,-792,6748,-473,1551,87,-14294,66964,-38025,7,-24669,2866,-51633,227686,165,-480,2489,9534
8954,1134639,14580,-802,6604,-452,1415,82,-13603,66290,-38358,7,-24777,2870,-51599,227545,165,-484,2489,9531
8965,1134651,14676,-812,6552,-452,1492,78,-12946,65613,-38663,7,-24874,2874,-51542,227465,166,-491,2488,9529
8976,1134662,14734,-790,6530,-430,1830,93,-12348,64935,-38938,7,-24987,2875,-51447,227459,165,-501,2484,9515
8988,1134673,14668,-720,6692,-432,2847,109,-11861,64257,-39189,7,-25205,2867,-51365,227463,165,-507,2473,9478
8999,1134684,14530,-744,6794,-424,3352,116,-11436,63573,-39420,7,-25481,2863,-51311,227386,165,-511,2466,9453
9010,1134696,14366,-778,6974,-399,3719,139,-11066,62889,-39627,7,-25809,2866,-51313,227235,165,-511,2465,9447
9022,1134707,14188,-830,7122,-380,3861,164,-10729,62206,-39813,7,-26165,2878,-51363,227127,165,-506,2469,9464
9033,1134718,14094,-814,7200,-366,3784,167,-10402,61522,-39982,7,-26516,2887,-51411,227108,165,-502,2472,9475
9044,1134730,14042,-784,7338,-343,3569,185,-10073,60839,-40134,7,-26856,2892,-51455,227117,167,-496,2472,9475
9055,1134741,13956,-766,7406,-338,3283,190,-9733,60154,-40272,7,-27173,2895,-51484,227101,165,-491,2470,9468
9067,1134752,13920,-824,7418,-331,2693,196,-9359,59475,-40396,7,-27430,2906,-51554,227026,165,-486,2475,9485
9078,1134763,13888,-790,7520,-312,2429,206,-8977,58796,-40504,7,-27671,2911,-51583,226816,165,-480,2475,9485
9089,1134775,13810,-754,7506,-339,2118,185,-8575,58114,-40606,7,-27879,2912,-51549,226500,166,-476,2470,9466
9100,1134786,13808,-806,7556,-388,1780,151,-8148,57429,-40704,7,-28058,2919,-51604,226180,165,-471,2472,9474
9112,1134797,13838,-778,7554,-400,1475,125,-7705,56742,-40793,7,-28204,2920,-51582,225688,165,-468,2469,9462
9123,1134808,13956,-796,7528,-422,1280,98,-7252,56051,-40875,7,-28318,2922,-51548,225182,165,-468,2467,9454
9134,1134819,13964,-778,7558,-425,1288,87,-6814,55363,-40945,7,-28431,2919,-51470,224749,165,-469,2462,9433
9145,1134831,13926,-770,7456,-426,1396,113,-6394,54677,-41006,7,-28539,2919,-51346,224459,166,-472,2455,9407
9156,1134842,13914,-772,7556,-445,1480,104,-5986,53985,-41059,7,-28663,2919,-51251,224252,165,-474,2449,9383
9168,1134853,13832,-780,7678,-477,1573,104,-5593,53292,-41106,7,-28810,2921,-51225,224012,165,-473,2445,9370
9179,1134864,13786,-798,7612,-476,1614,112,-5211,52600,-41145,7,-28950,2926,-51203,223750,165,-473,2444,9365
9190,1134876,13802,-776,7668,-465,1639,96,-4841,51906,-41174,7,-29092,2927,-51135,223467,169,-474,2439,9346
9201,1134887,13802,-736,7634,-462,1688,97,-4484,51216,-41194,7,-29229,2922,-50964,223099,166,-477,2427,9301
9212,1134898,13766,-764,7730,-474,1760,100,-4141,50526,-41209,7,-29379,2922,-50876,222329,165,-478,2421,9276
9223,1134909,13692,-780,7798,-458,1801,103,-3807,49832,-41213,7,-29542,2923,-50850,221329,165,-478,2418,9264
9235,1134920,13628,-756,7902,-464,1746,118,-3475,49138,-41212,7,-29710,2923,-50828,220306,165,-475,2412,9245
9246,1134931,13580,-782,7908,-455,1577,107,-3136,48444,-41202,7,-29861,2925,-50845,219286,165,-472,2411,9240
9257,1134943,13612,-754,7792,-451,1285,100,-2776,47748,-41187,7,-29968,2924,-50724,218409,165,-475,2403,9209
9268,1134954,13588,-780,7916,-504,1185,59,-2410,47050,-41171,7,-30078,2924,-50708,217124,165,-474,2401,9199
9279,1134965,13620,-754,7910,-523,1147,65,-2048,46357,-41152,7,-30178,2922,-50610,215830,165,-475,2393,9168
9291,1134976,13524,-760,7958,-527,1092,72,-1686,45665,-41126,7,-30280,2922,-50575,214243,165,-474,2388,9149
9302,1134987,13418,-774,8040,-531,983,57,-1322,44972,-41095,7,-30386,2924,-50636,212646,165,-470,2387,9147
9313,1134998,13430,-788,8072,-522,760,49,-947,44284,-41056,7,-30472,2926,-50715,211349,165,-466,2388,9152
9324,1135009,13508,-764,7994,-531,518,39,-559,43601,-41014,7,-30522,2924,-50657,210362,165,-466,2383,9130
9335,1135020,13524,-738,7998,-539,406,32,-165,42917,-40966,7,-30560,2918,-50536,209207,165,-466,2373,9092
9345,1135031,13466,-800,8060,-534,372,31,224,42233,-40912,7,-30605,2921,-50599,207639,165,-464,2375,9099
9356,1135042,13568,-776,8034,-466,415,71,598,41558,-40845,7,-30643,2920,-50532,206337,165,-464,2370,9080
9367,1135053,13434,-750,7974,-488,419,80,971,40885,-40777,7,-30681,2918,-50442,205016,165,-465,2363,9053
9378,1135064,13400,-776,8090,-519,319,47,1348,40210,-40706,7,-30724,2919,-50478,203389,165,-462,2362,9049
9389,1135075,13416,-686,8066,-534,190,32,1737,39528,-40631,7,-30753,2907,-50311,202000,165,-462,2347,8990
9400,1135086,13492,-770,8022,-541,85,36,2131,38848,-40552,7,-30762,2907,-50252,199875,165,-462,2342,8972
9411,1135097,13502,-762,8008,-535,52,37,2521,38173,-40468,8,-30765,2905,-50164,197607,165,-464,2336,8948
9422,1135108,13472,-700,7966,-546,80,44,2906,37499,-40381,7,-30769,2896,-49957,195145,166,-466,2321,8890
9433,1135118,13488,-772,8016,-552,128,42,3283,36827,-40289,7,-30780,2898,-49907,191587,165,-467,2318,8876
9444,1135129,13476,-798,8068,-535,129,43,3659,36150,-40191,7,-30798,2902,-49940,187997,165,-466,2319,8880
9454,1135140,13452,-746,8156,-521,71,54,4036,35474,-40086,7,-30822,2899,-49941,184885,165,-463,2314,8860
9465,1135151,13410,-780,8164,-532,-32,59,4415,34807,-39980,7,-30841,2901,-50025,182105,165,-460,2315,8864
9477,1135162,13530,-790,7986,-537,-223,44,4812,34133,-39869,7,-30815,2904,-49960,179937,165,-462,2312,8853
9488,1135173,13568,-738,7990,-540,-173,49,5206,33454,-39754,7,-30792,2900,-49791,177601,165,-465,2301,8810
9499,1135184,13554,-752,8050,-541,-71,56,5588,32778,-39634,7,-30786,2898,-49696,174572,165,-467,2293,8781
9509,1135195,13488,-778,8040,-540,4,67,5958,32110,-39512,7,-30790,2901,-49672,171442,165,-467,2291,8771
9520,1135206,13464,-804,8076,-529,-4,62,6321,31453,-39387,7,-30798,2907,-49718,168483,165,-465,2293,8779
9531,1135217,13472,-800,8074,-542,-79,58,6691,30792,-39258,7,-30800,2912,-49749,166007,165,-464,2294,8782
9542,1135228,13530,-728,8076,-537,-137,48,7067,30126,-39125,7,-30793,2905,-49644,163807,165,-465,2283,8742
9553,1135239,13506,-760,8024,-536,-146,47,7445,29456,-38987,7,-30781,2904,-49577,161401,165,-466,2278,8720
9564,1135250,13540,-752,8010,-542,-103,51,7818,28788,-38846,7,-30769,2902,-49482,158874,165,-468,2270,8691
9575,1135261,13592,-750,7990,-541,-31,55,8184,28121,-38702,7,-30757,2900,-49354,156077,165,-471,2262,8657
9586,1135272,13514,-776,8012,-534,124,48,8532,27461,-38555,7,-30767,2901,-49312,153059,165,-472,2258,8645
9597,1135283,13594,-764,7928,-523,219,53,8871,26803,-38405,7,-30769,2900,-49178,150086,165,-477,2251,8616
9608,1135294,13674,-752,7890,-505,419,56,9192,26146,-38250,7,-30776,2896,-48985,146683,165,-484,2241,8576
9619,1135305,13690,-718,7870,-495,742,58,9485,25491,-38093,7,-30805,2887,-48756,142685,165,-493,2226,8520
9630,1135316,13588,-800,7888,-485,1118,87,9746,24841,-37933,7,-30874,2893,-48632,138183,165,-499,2223,8508
9641,1135327,13512,-754,8038,-478,1427,91,9982,24188,-37769,7,-30989,2892,-48569,133599,165,-501,2218,8486
9652,1135338,13374,-762,8138,-473,1573,97,10206,23537,-37604,7,-31132,2893,-48584,129499,165,-500,2216,8478
9663,1135349,13290,-816,8182,-480,1504,87,10437,22883,-37437,7,-31275,2900,-48647,126089,165,-497,2220,8494
9675,1135360,13366,-798,8186,-478,1370,62,10680,22228,-37268,7,-31398,2903,-48661,123169,165,-496,2221,8497
9686,1135371,13434,-720,8192,-454,1305,77,10928,21575,-37096,7,-31507,2895,-48595,120514,165,-498,2211,8462
9697,1135383,13226,-738,8316,-428,1223,122,11183,20929,-36921,7,-31633,2893,-48637,118128,166,-494,2208,8450
9708,1135394,13236,-700,8284,-457,995,102,11460,20278,-36745,7,-31732,2886,-48625,116144,165,-493,2200,8420
9719,1135405,13292,-734,8290,-525,795,64,11755,19628,-36574,7,-31808,2883,-48613,114251,165,-492,2195,8399
9730,1135416,13300,-778,8366,-542,738,44,12052,18984,-36404,7,-31884,2885,-48652,112437,165,-490,2195,8397
9741,1135427,13272,-758,8316,-542,751,48,12348,18342,-36232,7,-31955,2885,-48651,110946,165,-489,2191,8386
9752,1135438,13222,-748,8264,-546,762,45,12645,17701,-36058,7,-32022,2885,-48627,109648,165,-490,2187,8370
9763,1135449,13194,-730,8320,-546,757,43,12943,17062,-35883,7,-32093,2882,-48613,108395,165,-489,2182,8349
9774,1135460,13194,-734,8462,-539,690,44,13246,16425,-35705,7,-32173,2878,-48653,107138,165,-486,2178,8333
9785,1135471,13182,-766,8338,-544,576,57,13560,15791,-35526,7,-32228,2881,-48654,106117,165,-485,2176,8326
9797,1135482,13246,-776,8292,-501,549,65,13876,15161,-35341,7,-32269,2883,-48615,105152,165,-487,2174,8318
9808,1135493,13172,-776,8376,-508,583,67,14190,14532,-35155,7,-32326,2885,-48625,104213,165,-486,2173,8315
9819,1135504,13146,-740,8390,-510,567,62,14506,13905,-34967,7,-32383,2883,-48613,103373,165,-485,2169,8298
9830,1135515,13034,-798,8466,-531,515,54,14828,13279,-34778,7,-32448,2889,-48695,102607,165,-481,2172,8311
9841,1135526,13112,-766,8452,-543,371,50,15164,12654,-34589,7,-32493,2891,-48720,101980,165,-479,2171,8306
9852,1135537,13116,-800,8404,-542,199,42,15515,12030,-34396,7,-32518,2896,-48749,101431,165,-478,2173,8313
9863,1135549,13142,-788,8406,-548,61,46,15879,11409,-34202,7,-32528,2901,-48760,100943,166,-477,2173,8312
9874,1135559,13162,-792,8434,-534,-22,43,16247,10795,-34006,7,-32534,2904,-48775,100484,165,-477,2173,8313
9885,1135571,13180,-766,8350,-542,2,39,16618,10177,-33805,7,-32531,2904,-48739,100082,166,-478,2169,8300
9895,1135581,13210,-712,8446,-543,77,47,16978,9571,-33606,7,-32542,2897,-48678,99641,169,-478,2160,8262
9906,1135592,13146,-762,8414,-533,92,46,17336,8972,-33405,7,-32555,2897,-48666,99180,165,-478,2157,8251
9917,1135603,13174,-756,8446,-539,71,49,17697,8375,-33202,7,-32567,2896,-48650,98719,165,-478,2153,8236
9928,1135614,13212,-754,8444,-539,45,52,18061,7781,-32997,7,-32574,2895,-48621,98258,165,-478,2148,8218
9939,1135625,13206,-712,8376,-545,72,43,18424,7187,-32789,7,-32576,2888,-48540,97808,166,-480,2139,8181
9949,1135635,13206,-734,8382,-541,140,43,18784,6596,-32579,7,-32584,2884,-48480,97292,165,-482,2132,8155
9960,1135646,13086,-778,8462,-537,178,54,19145,6003,-32364,7,-32611,2887,-48510,96759,165,-480,2132,8155
9971,1135657,13112,-780,8446,-541,114,55,19514,5413,-32147,7,-32629,2891,-48526,96290,165,-479,2132,8153
9982,1135668,13096,-744,8438,-548,24,45,19892,4823,-31928,7,-32640,2890,-48514,95872,165,-478,2128,8137
9993,1135679,13122,-750,8464,-539,-40,51,20274,4241,-31707,7,-32646,2889,-48508,95453,165,-477,2124,8122
10004,1135690,13142,-780,8452,-543,-46,49,20661,3656,-31481,7,-32648,2892,-48515,95048,167,-477,2123,8119
10015,1135701,13218,-812,8424,-537,-42,48,21050,3073,-31252,7,-32643,2898,-48519,94659,166,-478,2125,8126
10025,1135711,13228,-766,8400,-542,3,46,21437,2493,-31021,7,-32638,2898,-48476,94304,165,-480,2121,8111
10036,1135722,13178,-778,8410,-542,258,48,21800,1923,-30791,7,-32658,2901,-48458,93941,165,-480,2119,8104
10047,1135733,13146,-772,8452,-533,316,44,22167,1346,-30553,7,-32689,2901,-48451,93586,165,-480,2117,8096
10058,1135744,13096,-776,8516,-538,327,36,22534,771,-30312,7,-32730,2902,-48474,93247,165,-478,2116,8092
10069,1135755,13098,-764,8502,-542,296,43,22904,203,-30072,7,-32765,2902,-48479,92948,165,-477,2114,8082
10080,1135765,13098,-756,8528,-538,243,36,23281,-363,-29828,7,-32798,2901,-48482,92665,165,-475,2110,8069
10090,1135776,13134,-762,8488,-537,193,30,23668,-933,-29578,7,-32819,2899,-48467,92395,165,-475,2107,8056
10101,1135787,13114,-706,8452,-539,210,41,24055,-1500,-29326,7,-32838,2892,-48404,92135,165,-476,2098,8020
10112,1135798,13082,-766,8470,-528,267,68,24445,-2066,-29070,7,-32865,2894,-48395,91841,165,-476,2096,8012
10123,1135809,13088,-774,8550,-493,270,82,24836,-2628,-28807,7,-32900,2896,-48407,91546,165,-474,2095,8007
10134,1135820,13054,-746,8564,-494,197,71,25237,-3189,-28541,7,-32932,2893,-48406,91284,165,-472,2091,7992
10145,1135831,13054,-716,8512,-514,79,73,25651,-3749,-28274,7,-32947,2889,-48366,91041,165,-471,2083,7963
10157,1135842,13216,-744,8480,-512,-2,56,26070,-4302,-28004,7,-32940,2885,-48296,90755,165,-474,2077,7938
10167,1135853,13236,-758,8446,-506,134,53,26482,-4853,-27730,7,-32939,2883,-48224,90433,165,-477,2072,7918
10178,1135864,13168,-764,8350,-506,323,59,26885,-5406,-27451,7,-32950,2883,-48150,90100,165,-482,2068,7903
10189,1135875,13146,-748,8470,-515,514,60,27275,-5957,-27169,7,-32989,2882,-48104,89715,165,-483,2063,7885
10200,1135886,13064,-778,8552,-517,636,58,27658,-6505,-26884,7,-33051,2884,-48118,89320,165,-482,2063,7883
10211,1135897,13004,-768,8542,-523,586,41,28049,-7054,-26596,7,-33109,2885,-48129,88979,165,-481,2062,7878
10222,1135908,13006,-758,8588,-537,444,40,28455,-7600,-26304,7,-33159,2885,-48144,88661,166,-479,2060,7870
10233,1135919,12884,-806,8664,-535,260,51,28881,-8143,-26010,7,-33208,2891,-48230,88384,166,-474,2064,7885
10244,1135930,12880,-774,8720,-537,-25,52,29334,-8684,-25711,7,-33238,2894,-48306,88174,167,-468,2064,7888
10255,1135941,12942,-794,8650,-540,-348,50,29818,-9222,-25409,7,-33230,2899,-48362,88010,166,-464,2066,7895
10266,1135952,13006,-782,8556,-541,-576,61,30328,-9761,-25100,7,-33190,2903,-48371,87877,166,-463,2066,7893
10277,1135963,13188,-754,8416,-534,-648,65,30849,-10296,-24785,7,-33117,2903,-48287,87744,166,-468,2060,7870
10288,1135974,13238,-736,8378,-537,-470,49,31363,-10834,-24463,7,-33053,2898,-48178,87580,165,-474,2052,7839
10299,1135985,13278,-750,8334,-541,-218,41,31860,-11369,-24136,7,-33004,2896,-48067,87361,165,-481,2045,7812
10310,1135996,13264,-734,8418,-539,67,43,32337,-11901,-23805,7,-32990,2891,-47975,87072,165,-487,2037,7781
10321,1136007,13108,-764,8456,-544,317,44,32790,-12423,-23474,7,-33013,2891,-47949,86752,165,-488,2034,7770
10332,1136018,13066,-766,8512,-542,442,41,33241,-12946,-23136,7,-33054,2892,-47945,86432,165,-488,2032,7761
10343,1136029,13076,-750,8496,-547,438,36,33697,-13466,-22794,7,-33091,2890,-47923,86128,165,-489,2028,7746
10354,1136040,12984,-744,8516,-539,404,32,34161,-13984,-22446,7,-33133,2888,-47920,85841,165,-488,2024,7732
10365,1136051,12994,-768,8584,-542,343,34,34634,-14500,-22094,7,-33174,2889,-47942,85555,165,-486,2023,7728
10376,1136062,13002,-774,8610,-539,-35,45,35144,-15011,-21738,7,-33186,2891,-47969,85296,165,-484,2023,7726
10388,1136073,13014,-766,8542,-537,-230,50,35675,-15518,-21376,7,-33173,2892,-47970,85075,165,-484,2021,7718
10399,1136084,13016,-792,8538,-533,-364,53,36227,-16025,-21006,7,-33149,2897,-47985,84867,165,-483,2021,7721
10410,1136096,13146,-778,8468,-548,-385,54,36786,-16530,-20631,7,-33108,2899,-47952,84669,166,-485,2019,7713
10421,1136107,13212,-782,8434,-541,-312,51,37344,-17030,-20250,7,-33065,2902,-47903,84456,165,-489,2017,7703
10432,1136118,13124,-722,8508,-543,-156,49,37894,-17528,-19864,7,-33051,2896,-47864,84233,165,-491,2009,7675
10443,1136129,13112,-762,8562,-540,-9,55,38437,-18021,-19471,7,-33057,2897,-47860,83990,165,-490,2006,7663
10454,1136140,13104,-738,8552,-534,71,45,38970,-18504,-19079,7,-33068,2893,-47842,83762,165,-490,2001,7642
10465,1136151,13100,-806,8488,-542,100,41,39507,-18983,-18681,7,-33075,2898,-47841,83540,165,-491,2002,7647
10476,1136162,13076,-778,8548,-544,269,41,40039,-19463,-18274,7,-33103,2900,-47845,83331,165,-491,2001,7643
10487,1136173,13030,-776,8616,-529,295,38,40576,-19938,-17861,7,-33143,2901,-47869,83135,165,-488,2000,7639
10498,1136184,13000,-776,8566,-532,220,40,41124,-20410,-17442,7,-33172,2902,-47882,82971,165,-487,2000,7635
10509,1136195,13060,-764,8552,-524,171,45,41682,-20878,-17017,7,-33190,2901,-47872,82817,165,-487,1997,7625
10520,1136206,13130,-752,8482,-511,225,66,42242,-21339,-16587,7,-33200,2899,-47823,82663,165,-490,1992,7606
10531,1136217,13120,-720,8570,-489,333,88,42798,-21794,-16151,7,-33229,2894,-47776,82487,165,-491,1984,7576
10543,1136228,13030,-742,8582,-481,393,76,43356,-22246,-15707,7,-33269,2891,-47760,82306,165,-490,1980,7560
10554,1136239,13022,-798,8606,-496,363,73,43922,-22694,-15258,7,-33308,2895,-47777,82127,165,-489,1981,7564
10565,1136250,13022,-748,8540,-488,336,79,44497,-23137,-14803,7,-33337,2894,-47748,81975,165,-490,1977,7549
10576,1136261,13028,-756,8538,-489,340,78,45077,-23576,-14342,7,-33364,2893,-47720,81817,165,-491,1974,7536
10587,1136272,12976,-760,8588,-501,242,68,45673,-24013,-13874,7,-33392,2893,-47716,81658,165,-491,1972,7526
10598,1136284,12992,-764,8610,-527,159,60,46281,-24446,-13402,7,-33413,2894,-47716,81503,169,-490,1970,7518
10609,1136295,13032,-780,8604,-535,80,46,46903,-24877,-12921,7,-33423,2896,-47714,81352,166,-490,1969,7514
10620,1136306,13092,-760,8526,-544,90,36,47525,-25300,-12439,7,-33421,2895,-47674,81209,166,-493,1965,7500
10631,1136317,13104,-782,8562,-544,210,32,48144,-25719,-11949,7,-33431,2897,-47650,81049,165,-495,1963,7494
10642,1136328,13112,-768,8446,-542,420,32,48758,-26136,-11449,7,-33446,2897,-47593,80893,166,-500,1960,7481
10653,1136339,13002,-748,8606,-538,628,35,49360,-26548,-10942,7,-33502,2894,-47582,80717,166,-500,1956,7466
10664,1136350,12934,-754,8672,-528,717,40,49962,-26955,-10429,7,-33575,2893,-47593,80546,167,-498,1954,7456
10675,1136361,12850,-754,8714,-531,678,39,50574,-27357,-9908,7,-33652,2892,-47622,80396,165,-495,1952,7449
10686,1136372,12840,-740,8752,-533,283,40,51222,-27752,-9386,7,-33698,2889,-47652,80265,166,-492,1949,7437
10697,1136383,12934,-800,8680,-529,104,47,51891,-28140,-8856,7,-33715,2894,-47673,80147,166,-490,1950,7443
10708,1136394,12970,-790,8636,-510,9,60,52575,-28520,-8320,7,-33717,2897,-47670,80044,166,-491,1950,7443
10719,1136404,12910,-760,8694,-511,-10,69,53256,-28889,-7786,7,-33727,2897,-47673,79947,165,-489,1948,7434
10730,1136415,12918,-746,8680,-529,-46,61,53958,-29259,-7237,7,-33732,2896,-47664,79856,165,-488,1944,7419
10740,1136426,12944,-778,8652,-526,-59,49,54669,-29624,-6679,7,-33731,2898,-47663,79765,165,-488,1943,7415
10751,1136437,12968,-716,8686,-536,-44,57,55385,-29984,-6115,7,-33734,2892,-47630,79675,165,-488,1936,7387
10762,1136448,12920,-746,8622,-538,-41,51,56109,-30337,-5544,7,-33733,2891,-47611,79581,165,-489,1933,7373
10773,1136459,12952,-744,8656,-548,-82,58,56843,-30685,-4967,7,-33730,2890,-47592,79480,165,-489,1928,7357
10784,1136470,12966,-758,8598,-543,-102,41,57586,-31026,-4380,7,-33718,2890,-47567,79378,165,-490,1925,7345
10795,1136481,12946,-758,8656,-550,-75,42,58340,-31365,-3782,7,-33717,2890,-47560,79270,165,-490,1923,7335
10806,1136492,13006,-768,8588,-540,131,42,59079,-31693,-3181,7,-33721,2891,-47530,79161,165,-492,1920,7325
10817,1136503,12960,-736,8598,-536,228,36,59817,-32014,-2572,7,-33737,2887,-47496,79051,165,-494,1916,7306
10828,1136514,12962,-754,8632,-530,289,46,60557,-32328,-1957,7,-33760,2886,-47475,78928,165,-495,1912,7294
10839,1136525,12868,-750,8678,-535,318,43,61302,-32636,-1335,7,-33797,2885,-47479,78809,165,-494,1910,7283
10850,1136536,12882,-746,8682,-537,281,36,62057,-32938,-705,7,-33828,2883,-47477,78694,165,-493,1907,7271
10861,1136547,12920,-768,8618,-530,224,41,62818,-33229,-73,7,-33845,2884,-47461,78584,165,-494,1905,7265
10872,1136558,12956,-752,8654,-540,212,44,63580,-33512,558,7,-33861,2883,-47438,78468,165,-495,1902,7252
10883,1136568,12928,-700,8674,-540,228,46,64347,-33787,1197,7,-33882,2876,-47400,78350,165,-496,1894,7221
10893,1136579,12896,-772,8766,-533,221,49,65129,-34057,1848,7,-33914,2878,-47423,78217,165,-494,1893,7219
10904,1136590,12884,-782,8818,-532,142,44,65924,-34320,2506,7,-33945,2880,-47463,78098,165,-490,1894,7221
10915,1136601,12816,-760,8748,-530,0,55,66737,-34575,3170,7,-33960,2881,-47482,78008,165,-488,1893,7216
10926,1136612,12936,-720,8636,-531,-335,51,67570,-34818,3830,7,-33929,2877,-47434,77924,165,-490,1886,7191
10937,1136623,13002,-716,8558,-526,-304,55,68428,-35057,4512,7,-33888,2872,-47356,77827,165,-494,1879,7163
10948,1136634,13044,-796,8578,-501,-114,76,69275,-35286,5199,7,-33862,2877,-47313,77699,165,-498,1879,7163
10959,1136645,12968,-738,8646,-485,103,85,70111,-35505,5892,7,-33868,2875,-47276,77567,165,-500,1875,7146
10970,1136656,12918,-762,8646,-488,258,84,70933,-35715,6585,7,-33889,2876,-47258,77432,166,-500,1873,7138
10981,1136666,13008,-720,8664,-493,398,69,71750,-35917,7286,7,-33916,2870,-47208,77289,165,-503,1866,7112
10991,1136677,13040,-754,8546,-481,599,85,72555,-36110,7990,7,-33944,2870,-47134,77135,165,-508,1862,7097
11002,1136688,12956,-746,8642,-472,893,79,73342,-36294,8701,7,-34010,2868,-47094,76959,165,-510,1858,7083
11013,1136699,12902,-792,8752,-468,1057,89,74120,-36470,9415,7,-34103,2872,-47097,76771,165,-510,1859,7087
11024,1136710,12720,-776,8890,-470,1052,82,74910,-36640,10141,7,-34219,2875,-47152,76611,165,-505,1861,7091
11035,1136721,12628,-758,8962,-473,808,85,75732,-36804,10878,7,-34325,2875,-47222,76491,165,-498,1861,7091
11046,1136732,12712,-770,8928,-527,78,43,76615,-36962,11615,7,-34359,2877,-47275,76399,165,-493,1861,7092
11057,1136743,12740,-760,8820,-539,-147,49,77515,-37111,12351,7,-34361,2878,-47293,76330,165,-491,1860,7088
11068,1136754,12770,-750,8814,-542,-301,56,78445,-37253,13102,7,-34348,2879,-47298,76265,165,-490,1858,7078
11079,1136765,12810,-724,8830,-537,-422,51,79391,-37385,13859,7,-34324,2875,-47287,76200,165,-488,1853,7059
11090,1136776,12928,-762,8660,-549,-460,48,80344,-37507,14619,7,-34272,2876,-47243,76133,165,-492,1850,7048
11101,1136787,13114,-732,8582,-543,-275,40,81286,-37619,15383,7,-34213,2871,-47132,76050,165,-500,1843,7019
11112,1136798,13110,-760,8554,-541,127,46,82197,-37720,16151,7,-34187,2871,-47035,75935,165,-508,1838,7002
11123,1136809,12976,-798,8624,-532,570,40,83068,-37811,16917,7,-34216,2876,-46996,75792,165,-512,1838,7003
11134,1136820,12836,-802,8768,-502,882,54,83915,-37890,17684,7,-34294,2881,-47004,75645,165,-512,1840,7010
11145,1136831,12774,-746,8910,-471,1045,78,84751,-37958,18452,7,-34403,2879,-47026,75510,165,-509,1838,7000
11156,1136842,12716,-756,8930,-497,803,67,85617,-38019,19229,7,-34494,2878,-47058,75397,165,-505,1836,6995
11167,1136853,12674,-760,8966,-503,588,52,86497,-38071,20004,7,-34570,2878,-47101,75303,165,-500,1836,6993
11178,1136864,12660,-786,8970,-512,415,52,87393,-38115,20780,7,-34631,2881,-47151,75228,165,-495,1837,6998
11189,1136875,12630,-742,8958,-520,205,53,88309,-38149,21557,7,-34674,2880,-47178,75171,165,-491,1835,6989
11200,1136886,12620,-740,8964,-541,-74,45,89250,-38175,22336,7,-34693,2878,-47205,75119,165,-487,1833,6979
11211,1136897,12718,-714,8888,-540,-335,56,90213,-38191,23115,7,-34678,2874,-47186,75070,165,-486,1827,6957
11222,1136908,12794,-710,8816,-541,-444,52,91194,-38196,23901,7,-34641,2869,-47139,75014,165,-487,1821,6931
11233,1136919,12802,-758,8782,-548,-408,55,92173,-38192,24687,7,-34604,2871,-47118,74950,165,-488,1818,6922
11244,1136930,12778,-764,8812,-550,-345,47,93147,-38176,25474,7,-34578,2873,-47114,74883,165,-488,1817,6917
11255,1136941,12790,-746,8842,-552,-306,34,94119,-38150,26262,7,-34559,2872,-47104,74817,165,-487,1814,6905
11266,1136952,12824,-750,8748,-566,-322,11,95093,-38115,27051,7,-34527,2870,-47077,74751,165,-489,1811,6893
11277,1136963,12810,-762,8716,-564,-291,25,96062,-38068,27838,7,-34496,2872,-47056,74682,165,-491,1809,6886
11289,1136974,12860,-760,8750,-546,-155,39,97018,-38010,28622,7,-34478,2872,-47030,74607,165,-493,1807,6877
11300,1136985,12784,-800,8816,-541,-37,50,97962,-37941,29402,7,-34481,2878,-47051,74529,169,-492,1809,6884
11310,1136996,12748,-780,8850,-542,-14,43,98897,-37863,30176,7,-34493,2882,-47072,74462,165,-490,1809,6885
11321,1137007,12698,-764,8876,-532,-57,47,99832,-37774,30947,7,-34506,2883,-47094,74404,165,-487,1808,6882
11333,1137018,12694,-746,8856,-544,-172,40,100775,-37675,31715,7,-34508,2882,-47104,74352,165,-485,1806,6872
11344,1137029,12718,-726,8930,-557,-339,38,101745,-37566,32493,7,-34502,2878,-47112,74299,165,-481,1802,6855
11355,1137041,12734,-764,8864,-568,-492,19,102727,-37447,33271,7,-34476,2879,-47132,74246,166,-479,1801,6851
11366,1137052,12770,-752,8818,-559,-673,40,103720,-37316,34042,7,-34428,2879,-47131,74195,165,-478,1798,6841
11377,1137063,12826,-738,8840,-564,-763,34,104716,-37175,34809,7,-34374,2877,-47118,74142,165,-477,1794,6825
11388,1137074,12858,-780,8738,-573,-815,31,105713,-37024,35573,7,-34304,2881,-47115,74086,165,-477,1794,6823
11399,1137085,12828,-762,8798,-590,-857,25,106711,-36863,36332,7,-34241,2882,-47122,74033,165,-476,1792,6816
11411,1137096,12886,-700,8750,-586,-867,18,107705,-36691,37088,7,-34170,2875,-47072,73979,165,-477,1784,6784
11422,1137107,12994,-712,8688,-578,-805,21,108688,-36508,37837,7,-34092,2868,-47002,73911,165,-480,1777,6754
11433,1137119,12980,-772,8674,-556,-638,45,109651,-36313,38577,7,-34031,2870,-46977,73828,166,-482,1775,6748
11444,1137130,12904,-780,8664,-548,-476,57,110595,-36108,39311,7,-33990,2875,-46971,73748,167,-483,1775,6747
11455,1137141,12896,-742,8660,-537,-415,57,111528,-35892,40038,7,-33955,2874,-46946,73672,165,-483,1771,6733
11466,1137152,12902,-738,8716,-535,-389,55,112452,-35667,40759,7,-33929,2872,-46932,73589,165,-483,1767,6718
11477,1137163,12894,-748,8706,-527,-442,49,113376,-35431,41473,7,-33899,2871,-46924,73506,165,-482,1765,6707
11489,1137174,12842,-762,8750,-529,-534,58,114301,-35186,42180,7,-33871,2872,-46945,73425,165,-479,1764,6703
11500,1137185,12818,-732,8744,-527,-691,68,115232,-34931,42879,7,-33831,2870,-46953,73353,165,-477,1760,6689
11511,1137197,12906,-746,8694,-528,-891,54,116176,-34667,43573,7,-33766,2869,-46947,73281,165,-475,1757,6678
11522,1137208,12862,-754,8720,-532,-1045,63,117125,-34393,44258,7,-33695,2870,-46966,73211,166,-472,1756,6671
11533,1137219,12866,-764,8710,-528,-1198,62,118089,-34108,44941,7,-33613,2872,-46993,73146,165,-469,1755,6668
11544,1137230,12918,-750,8712,-528,-1392,69,119061,-33813,45614,7,-33514,2872,-47007,73084,165,-466,1753,6659
11556,1137241,12922,-804,8632,-533,-1601,70,120044,-33509,46280,7,-33393,2880,-47051,73026,165,-463,1756,6669
11567,1137253,12930,-772,8632,-553,-2034,58,121059,-33195,46939,7,-33238,2884,-47080,72976,166,-460,1755,6668
11578,1137264,12920,-736,8598,-549,-2276,53,122087,-32871,47590,7,-33066,2882,-47086,72929,165,-456,1752,6654
11589,1137275,12976,-730,8578,-546,-2541,64,123128,-32538,48230,7,-32873,2880,-47086,72877,165,-453,1748,6637
11601,1137286,13078,-736,8504,-550,-2801,62,124184,-32195,48860,7,-32650,2878,-47074,72818,165,-450,1743,6619
11612,1137297,13120,-754,8392,-560,-3049,40,125254,-31841,49483,7,-32399,2878,-47067,72758,165,-449,1741,6609
11623,1137309,13236,-718,8312,-542,-3230,36,126331,-31475,50095,8,-32125,2871,-47009,72694,165,-449,1734,6582
11634,1137320,13382,-742,8230,-535,-3233,47,127399,-31100,50695,7,-31841,2867,-46946,72617,165,-452,1729,6561
11646,1137331,13442,-740,8132,-529,-3175,58,128453,-30715,51283,7,-31557,2864,-46872,72534,165,-455,1723,6539
11657,1137342,13442,-762,8126,-513,-3144,34,129496,-30318,51861,7,-31286,2861,-46842,72438,165,-456,1721,6528
11668,1137354,13452,-776,8042,-556,-3242,28,130541,-29915,52432,7,-31006,2863,-46829,72342,166,-458,1719,6524
11679,1137365,13588,-750,7900,-599,-3368,-18,131590,-29502,52998,7,-30699,2859,-46766,72245,165,-462,1715,6506
11691,1137376,13602,-798,7918,-618,-3308,-35,132635,-29077,53560,7,-30408,2861,-46769,72131,165,-464,1716,6510
11702,1137387,13750,-726,7838,-620,-3139,-21,133656,-28645,54110,7,-30121,2853,-46696,72017,165,-468,1708,6480
11713,1137399,13752,-756,7674,-638,-2947,-37,134653,-28203,54651,7,-29842,2849,-46634,71884,165,-473,1704,6465
11725,1137410,13792,-760,7666,-624,-2759,-30,135624,-27753,55180,7,-29585,2847,-46587,71727,165,-478,1701,6452
11736,1137421,13764,-762,7654,-617,-2519,-25,136566,-27295,55697,7,-29359,2845,-46565,71556,165,-480,1698,6442
11747,1137433,13728,-768,7768,-631,-2539,-15,137502,-26830,56204,7,-29157,2845,-46602,71379,165,-477,1698,6439
11758,1137444,13798,-694,7630,-600,-2665,-4,138440,-26357,56698,7,-28930,2833,-46571,71227,165,-478,1690,6408
11770,1137455,13898,-748,7540,-576,-2774,-3,139370,-25879,57175,7,-28687,2829,-46544,71060,165,-480,1686,6394
11781,1137466,13872,-730,7536,-600,-2779,6,140294,-25395,57643,7,-28454,2824,-46537,70891,165,-480,1681,6376
11792,1137478,13946,-758,7444,-582,-2796,14,141203,-24908,58095,7,-28214,2823,-46522,70723,166,-481,1679,6367
11803,1137489,13946,-748,7452,-569,-2845,13,142116,-24410,58540,7,-27979,2820,-46529,70556,165,-480,1677,6357
11814,1137500,13900,-734,7426,-557,-2924,27,143028,-23905,58972,7,-27746,2816,-46550,70408,165,-477,1674,6346
11826,1137511,13958,-788,7408,-547,-3104,26,143947,-23393,59393,7,-27501,2819,-46604,70272,165,-474,1675,6353
11837,1137522,14070,-772,7266,-546,-3610,37,144902,-22875,59803,7,-27200,2821,-46614,70163,165,-473,1675,6350
11848,1137534,14050,-762,7274,-543,-3826,47,145868,-22352,60200,8,-26894,2821,-46650,70065,165,-469,1674,6347
11859,1137545,13992,-758,7196,-515,-4122,65,146851,-21821,60584,7,-26569,2822,-46695,69989,165,-464,1674,6345
11871,1137556,13834,-768,7302,-501,-4652,84,147872,-21285,60954,7,-26231,2826,-46816,69932,165,-453,1676,6353
11882,1137567,13964,-830,7082,-479,-5424,100,148950,-20743,61310,7,-25809,2838,-46933,69891,165,-445,1682,6377
11893,1137579,14128,-732,7046,-473,-6125,86,150090,-20189,61656,7,-25330,2835,-46969,69850,166,-436,1679,6364
11904,1137590,14202,-796,6852,-478,-6747,112,151267,-19634,61986,7,-24794,2842,-47049,69799,165,-428,1681,6373
11916,1137601,14408,-778,6692,-462,-7297,124,152493,-19068,62302,7,-24198,2847,-47082,69731,165,-423,1681,6372
11927,1137613,14596,-788,6266,-458,-8103,122,153780,-18496,62604,7,-23491,2852,-47054,69653,166,-425,1680,6369
11938,1137624,14786,-758,6104,-445,-8350,123,155081,-17916,62889,7,-22759,2851,-46977,69583,165,-428,1676,6350
12595,1137635,15008,-722,5828,-449,-8462,133,156385,-17332,63160,7,-21996,2844,-46818,69523,165,-436,1665,6312
12596,1137646,15170,-740,5588,-453,-8411,151,157677,-16742,63416,7,-21226,2841,-46658,69467,165,-446,1657,6278
12597,1137658,15172,-744,5522,-436,-8277,185,158950,-16150,63654,7,-20492,2842,-46555,69394,165,-451,1650,6252
12598,1137669,15354,-810,5330,-403,-8190,215,160209,-15553,63874,7,-19760,2854,-46480,69296,165,-456,1648,6247
12599,1137680,15206,-752,5464,-321,-8048,243,161448,-14952,64072,7,-19100,2857,-46493,69188,165,-451,1644,6231
12600,1137692,15478,-714,4872,-152,-8473,281,162715,-14345,64241,8,-18333,2852,-46307,69096,165,-459,1633,6189
12602,1137703,15686,-766,4604,-185,-8585,255,163986,-13732,64398,7,-17541,2854,-46120,68945,169,-471,1626,6161
12603,1137714,15884,-790,4354,-284,-8550,198,165253,-13114,64551,7,-16741,2857,-45936,68720,165,-484,1620,6139
12604,1137726,15786,-752,4530,-358,-8324,133,166497,-12488,64698,7,-16026,2851,-45913,68395,166,-484,1614,6118
12605,1137737,15576,-818,4324,-364,-8383,178,167742,-11864,64829,7,-15315,2862,-45924,68100,165,-482,1615,6123
12606,1137748,15626,-908,4178,-307,-8817,171,169019,-11234,64942,7,-14576,2884,-45965,67850,165,-478,1624,6155
12608,1137760,15788,-756,4040,-215,-9440,198,170345,-10603,65031,7,-13792,2881,-45977,67661,167,-474,1620,6139
12609,1137771,15958,-648,3914,-249,-9867,165,171705,-9967,65108,7,-12981,2860,-45985,67510,165,-467,1606,6091
12610,1137782,15992,-778,3490,-443,-10483,122,173107,-9333,65187,7,-12096,2860,-45988,67383,165,-466,1603,6080
12611,1137793,16128,-748,3156,-460,-10872,104,174550,-8691,65251,7,-11157,2854,-45943,67271,165,-467,1597,6057
12613,1137805,16078,-694,3086,-471,-11213,132,176020,-8049,65299,7,-10222,2843,-45972,67149,165,-462,1588,6027
12614,1137816,16274,-824,2586,-475,-11726,137,177531,-7406,65331,7,-9205,2851,-45947,67049,165,-463,1588,6026
12615,1137827,16582,-686,2290,-478,-12025,81,179055,-6763,65345,7,-8166,2835,-45851,66959,165,-466,1576,5985
12616,1137838,16900,-780,1720,-522,-12000,111,-179437,-6127,65346,7,-7103,2834,-45694,66854,165,-476,1570,5960
12617,1137850,17220,-718,1320,-564,-11472,94,-177953,-5479,65334,8,-6068,2827,-45537,66723,167,-485,1561,5927
12619,1137861,17348,-690,1062,-640,-10501,89,-176564,-4836,65312,7,-5129,2819,-45410,66542,165,-494,1551,5893
12621,1137872,17136,-774,1088,-623,-8376,92,-175358,-4194,65274,7,-4390,2817,-45343,66252,165,-499,1546,5876
12622,1137883,17006,-838,936,-628,-7864,113,-174205,-3558,65224,7,-3704,2825,-45289,65894,165,-503,1545,5870
12623,1137894,16906,-758,904,-686,-7630,50,-173071,-2918,65165,7,-3058,2817,-45315,65487,165,-503,1541,5857
12625,1137905,16802,-730,794,-793,-7724,51,-171937,-2283,65103,7,-2421,2806,-45391,65094,165,-501,1536,5842
12626,1137917,16818,-672,738,-949,-8100,25,-170770,-1644,65041,7,-1769,2786,-45548,64776,165,-496,1529,5824
12628,1137928,16966,-806,486,-1019,-8504,16,-169569,-1005,64972,7,-1074,2784,-45671,64581,166,-491,1530,5827
12629,1137939,17018,-758,186,-1041,-8778,16,-168334,-362,64890,7,-339,2774,-45750,64444,165,-490,1527,5819
12631,1137950,16958,-808,16,-1144,-9021,23,-167096,270,64805,7,397,2772,-45864,64325,167,-486,1527,5821
12632,1137960,16970,-832,78,-1188,-9363,27,-165859,886,64711,7,1111,2772,-46105,64239,165,-476,1531,5838
12633,1137971,17038,-828,-214,-1137,-9718,34,-164580,1505,64600,7,1869,2771,-46296,64211,165,-468,1534,5849
12635,1137982,17048,-766,-798,-941,-10416,77,-163211,2127,64456,7,2744,2766,-46322,64201,165,-468,1531,5839
12636,1137993,17002,-728,-1046,-994,-10864,78,-161801,2747,64301,7,3655,2756,-46349,64191,165,-467,1526,5824
12637,1138004,17018,-618,-1462,-1083,-11391,64,-160333,3371,64136,7,4632,2732,-46306,64180,165,-470,1515,5789
12639,1138016,16760,-568,-1474,-1425,-12015,48,-158798,4008,63980,7,5636,2694,-46399,64151,166,-465,1502,5752
12640,1138027,16710,-646,-1790,-1866,-13079,42,-157171,4655,63841,7,6733,2662,-46565,64119,165,-461,1495,5734
12641,1138038,16732,-736,-1710,-2174,-14199,33,-155446,5310,63707,7,7867,2639,-47049,64093,165,-444,1499,5755
12643,1138049,17302,-1214,-2420,-2255,-15603,118,-153599,5957,63563,7,9177,2657,-47472,64074,165,-437,1517,5812
12644,1138061,20186,-1506,-3978,-2264,-16087,110,-151686,6606,63395,4,10581,2637,-47625,64096,99,-437,1517,5812
12646,1138072,18786,-964,-5058,-1787,-6861,216,-150575,7218,63179,4,11176,2631,-47738,64111,98,-437,1517,5812
12647,1138083,17598,-808,-3588,-871,-1992,217,-149874,7783,62887,7,11347,2639,-47757,64065,165,-438,1516,5810
12648,1138094,17318,-872,-3358,-541,-581,87,-149281,8344,62557,7,11384,2647,-47810,64008,165,-436,1519,5817
12650,1138105,17324,-818,-3114,-533,-598,58,-148691,8895,62223,7,11400,2649,-47896,63940,165,-430,1520,5823
12651,1138116,17298,-830,-3254,-528,-903,54,-148071,9443,61881,7,11453,2651,-47958,63852,165,-426,1521,5827
12652,1138128,17406,-798,-3514,-537,-1197,45,-147422,9988,61534,7,11548,2650,-47960,63765,166,-425,1520,5826
12654,1138139,17530,-846,-3570,-589,-1141,16,-146769,10538,61179,7,11640,2648,-47980,63692,166,-425,1521,5828
12655,1138150,17486,-844,-3568,-578,-783,42,-146136,11087,60815,7,11700,2648,-48002,63617,165,-424,1522,5830
12656,1138161,17264,-826,-3302,-540,-626,68,-145515,11624,60446,7,11726,2651,-48064,63520,165,-419,1523,5834
12658,1138172,17266,-838,-3366,-515,-1349,40,-144828,12158,60066,7,11816,2654,-48119,63410,165,-415,1524,5838
12660,1138183,17410,-846,-3698,-515,-1678,35,-144102,12691,59675,7,11958,2655,-48127,63310,165,-415,1525,5840
12661,1138195,17622,-754,-3776,-529,-1449,9,-143390,13223,59276,7,12079,2647,-48105,63232,166,-415,1523,5834
