pc_t_ms,emg_t_ms,emg0,emg1,emg2,emg3,emg4,emg5,emg6,emg7
0,0,-3,-44,4,1,-111,-45,-8,4
0,0,-2,-40,-1,-18,-8,-37,-8,-21
0,1,1,15,-2,-1,55,14,2,-7
0,1,6,54,-1,14,99,53,6,18
0,2,-7,-20,2,3,-63,-20,-4,2
0,2,-3,-30,-2,-12,-7,-28,-6,-15
0,5,-1,-6,-1,-5,27,-4,-1,-10
0,5,3,55,-2,14,97,52,8,17
0,19,-2,-14,3,3,-51,-16,-3,7
0,19,-2,-26,1,-8,-18,-24,-6,-12
0,21,2,0,0,-9,46,0,-1,-11
0,21,2,44,0,14,67,43,10,17
0,30,-1,-15,2,1,-44,-16,-2,4
0,30,-3,-26,-2,-10,-1,-25,-4,-15
0,43,4,6,-3,-3,42,6,3,-6
0,43,3,31,0,10,33,32,4,16
0,51,0,-18,1,-2,-36,-18,-3,2
0,51,0,-12,-1,-6,5,-12,-3,-8
0,74,-1,5,-1,1,26,5,1,0
0,74,1,21,-1,6,28,20,3,9
0,76,0,-15,0,-2,-18,-14,-4,-3
0,76,-1,-6,0,-4,13,-5,-1,-8
0,88,0,5,0,1,29,5,0,-1
0,88,0,13,-1,5,26,12,2,3
0,128,1,14,-2,-8,78,13,3,-6
0,128,4,61,-1,13,118,60,10,22
0,129,0,-7,3,8,-88,-9,-1,15
0,129,-6,-46,-1,-16,-35,-45,-10,-19
0,133,-1,1,-3,-5,29,1,0,-8
0,133,4,37,-3,8,96,38,5,7
0,134,-1,7,2,10,-43,7,2,18
0,134,-4,-39,0,-11,-38,-36,-6,-20
0,139,-2,-9,-2,-6,13,-9,-1,-14
0,139,2,37,-2,7,93,37,3,2
0,154,2,6,3,8,-42,4,0,13
0,154,-5,-34,-2,-11,-25,-32,-7,-15
0,161,2,-4,-2,-5,33,-4,-2,-9
0,161,2,36,-3,8,69,37,5,12
0,170,2,-3,3,5,-37,-4,0,8
0,170,0,-25,-1,-13,-18,-30,-7,-14
0,176,-12,7,-1,-1,28,5,0,-5
0,176,5,22,-2,6,50,22,4,3
0,200,7,-10,2,3,-32,-6,2,8
0,200,-2,-15,0,-7,3,-16,-2,-10
0,200,-6,3,-2,-2,21,6,-1,-2
0,200,-4,19,0,4,34,16,1,7
0,214,-3,-7,1,0,-15,-11,-3,0
0,214,-1,-8,-2,-3,13,-5,-1,-4
0,221,7,1,1,-2,18,0,0,3
0,221,-4,10,-2,5,33,9,2,4
0,236,-3,-5,1,0,-3,-5,2,-2
0,236,0,-6,0,-3,9,-4,0,-4
0,237,5,0,-2,-2,12,1,-3,-1
0,237,2,10,0,1,32,11,4,8
0,259,-2,-3,-1,1,-1,-5,-3,2
0,259,-1,-4,1,-3,0,-7,-1,-7
0,259,2,1,0,-1,25,0,1,-5
0,259,0,10,0,3,26,13,1,6
0,282,-4,-4,-2,-1,-2,-7,-3,-1
0,282,1,-6,-1,-3,11,-3,0,0
0,282,1,2,1,0,29,3,0,-1
0,282,4,7,0,1,20,5,0,2
0,298,-12,-10,1,0,2,-8,-4,-7
0,298,10,-1,-1,-3,18,-1,-1,-3
0,299,0,4,0,2,20,2,0,-1
0,299,-1,7,-1,2,19,3,-1,5
0,319,-2,-9,0,-3,2,-7,-1,0
0,319,-3,1,-1,-1,29,2,1,-1
0,328,0,3,-2,-1,16,5,1,1
0,328,2,6,1,4,14,5,0,3
0,341,2,-7,-1,-3,4,-9,-2,0
0,341,-2,1,0,1,29,1,-1,-1
0,343,2,2,1,1,14,0,-1,0
0,343,-3,3,-1,1,14,5,1,-2
0,365,-1,-6,-2,-4,6,-7,-1,-2
0,365,-1,1,-1,-1,31,4,1,0
0,366,1,1,-2,-1,16,2,0,1
0,366,-3,4,0,2,16,4,2,1
0,387,-1,-6,1,-1,6,-8,-4,-5
0,387,0,4,-1,0,26,1,-1,-2
0,388,-2,1,-1,0,21,3,1,-1
0,388,4,3,-2,1,15,2,-1,4
0,402,6,-7,0,-2,10,-9,-3,1
0,402,-5,3,0,0,29,3,-1,-2
0,403,-1,3,1,1,23,2,0,0
0,403,1,3,1,0,17,2,1,3
0,417,-2,-8,-2,-1,11,-6,-2,-2
0,417,-1,1,0,-1,15,4,0,1
0,418,-1,0,0,0,17,3,2,3
0,418,-1,1,0,-1,5,0,-1,1
0,439,2,-7,0,-2,11,-5,-1,0
0,439,0,5,0,-1,22,3,3,-2
0,440,1,3,-1,0,17,1,2,0
0,440,-1,-1,-1,1,9,4,0,3
0,461,0,-9,0,-3,11,-7,0,-6
0,461,-1,4,0,0,30,1,-2,-3
0,462,0,3,1,1,23,4,0,-1
0,462,-3,1,0,0,13,1,-1,1
0,476,-2,-7,-2,-3,10,-4,-1,-5
0,476,5,3,0,0,28,4,1,3
0,477,0,4,0,1,26,2,-1,-1
0,477,3,1,0,2,3,-2,0,1
0,499,-6,-7,0,-4,13,-4,-1,-7
0,499,1,3,0,0,24,4,1,0
0,500,0,2,-1,0,10,0,-2,5
0,500,-3,-1,-2,3,-5,1,-1,3
0,521,-2,-8,1,-2,11,-8,-3,1
0,521,-2,2,-3,0,13,3,2,2
0,522,0,0,1,0,12,0,-1,1
0,522,-3,-1,1,0,-7,1,0,-1
0,537,1,-7,0,-3,8,-8,0,-5
0,537,0,4,0,1,17,4,1,-1
0,537,2,3,-2,2,15,2,0,-1
0,537,2,-1,1,2,-4,-2,1,1
0,559,-2,-7,0,-3,10,-6,-3,-2
0,559,0,4,-3,1,20,4,0,1
0,560,-4,1,1,0,13,1,0,1
0,560,1,1,0,0,-3,-2,-1,2
0,582,-6,-9,0,-2,8,-5,-2,-3
0,582,2,1,1,1,13,2,0,-1
0,583,-1,2,-1,1,16,2,0,3
0,583,-1,-1,-1,-1,-6,-1,1,1
0,597,4,-6,-1,-3,10,-9,-1,-6
0,597,-1,6,-2,-2,19,3,0,1
0,597,-3,0,0,-1,17,3,0,0
0,597,-1,0,0,0,4,0,2,-1
0,619,3,-8,-1,-4,9,-5,-1,-5
0,619,-1,4,-2,-1,10,3,0,1
0,620,-1,1,-2,0,18,2,0,3
0,620,0,-1,0,2,0,-1,-1,5
0,641,-2,-4,-2,-1,7,-7,-3,-3
0,641,0,3,1,1,16,5,1,2
0,642,0,1,-2,-2,19,3,-1,0
0,642,-1,-4,0,0,-8,-5,-1,3
0,665,-1,-7,0,-3,8,-8,0,-2
0,665,1,3,0,-1,14,-1,1,1
0,665,3,3,-2,-1,16,2,-1,0
0,665,-2,-2,2,1,9,-3,-2,-4
0,680,-2,-6,-1,-1,5,-7,-2,-3
0,680,0,2,-1,-1,17,3,1,-2
0,680,2,4,1,1,21,3,1,0
0,680,-1,-1,0,0,1,-1,-2,0
0,701,-2,-5,-1,-3,11,-7,-2,-4
0,701,-2,1,-1,2,23,3,-2,-2
0,703,-1,1,-1,1,22,2,0,0
0,703,1,-1,1,0,-2,-4,0,1
0,717,2,-5,0,-4,11,-6,-1,-5
0,717,-2,3,-1,2,13,2,0,1
0,718,2,3,-1,0,15,2,1,4
0,718,-1,-1,-2,0,-2,-4,1,3
0,740,0,-7,0,-4,10,-6,0,-4
0,740,-1,2,-1,0,15,5,0,0
0,740,0,2,0,1,19,4,-1,0
0,740,-3,-4,0,0,-8,-4,-2,1
5,761,-1,-5,0,-2,10,-6,-4,-5
5,761,-1,5,1,0,22,5,0,-1
6,763,1,3,1,2,20,1,2,2
6,763,0,-5,-1,0,-19,-3,-2,0
20,777,1,-8,-2,-3,10,-4,-2,-1
20,777,1,3,-1,0,18,3,0,2
21,778,-2,1,1,1,10,1,2,3
21,778,0,-2,2,-1,-2,-3,0,2
43,799,-1,-4,0,-3,8,-5,-1,-3
43,799,0,3,-1,1,17,5,1,0
43,800,2,2,-3,1,23,2,-1,1
43,800,2,-2,0,-1,-4,-5,-1,-1
65,821,1,-6,0,-4,8,-4,-1,-5
65,821,0,3,2,-2,19,4,0,-1
66,823,2,4,-2,0,17,5,0,2
66,823,2,-5,-1,0,-3,-1,-1,1
79,836,-2,-3,-2,-2,10,-4,-3,-3
79,836,-1,3,2,1,26,2,-1,0
88,845,-3,1,0,0,23,3,1,-2
88,845,-3,-4,-2,0,-3,-5,1,0
103,860,2,-4,-1,-2,15,-5,-1,-1
103,860,-5,2,-1,1,22,1,0,-4
103,860,-1,3,0,1,19,2,-1,0
103,860,-1,-3,0,0,1,-1,-1,-1
125,882,2,-3,1,-2,11,-4,-1,-3
125,882,5,3,-2,-2,12,1,0,0
126,883,0,2,-1,0,10,2,1,2
126,883,-1,-3,1,-2,-16,-4,-1,0
139,896,-1,-6,-1,-2,10,-3,1,-1
139,896,1,3,1,0,16,6,0,3
148,904,-3,3,-1,1,22,3,-1,4
148,904,-2,-6,0,0,-15,-6,-2,0
163,919,-4,-5,-2,-2,14,-5,-4,-5
163,919,0,1,-2,0,17,1,2,1
163,920,-1,2,0,1,9,3,0,-2
164,920,0,-5,-2,0,-15,-7,-1,-4
197,942,-3,-4,0,-1,12,-2,-1,-4
197,942,3,3,0,0,7,1,1,4
197,942,-1,1,0,1,13,2,-2,2
197,942,2,-5,1,-1,-2,-3,-1,0
200,956,-1,-4,-1,-2,14,-4,-3,-2
200,956,1,4,0,-1,15,3,0,0
208,964,3,3,0,-2,18,3,-1,-2
208,964,-1,-5,-2,-1,-4,-5,-1,-2
223,980,-3,-5,0,-1,10,-3,1,-5
223,980,0,3,-1,1,11,3,2,3
223,980,2,4,0,0,20,3,2,3
223,980,3,-5,2,1,-9,-4,-1,0
245,1002,1,0,-1,-4,10,-5,1,-4
245,1002,-2,1,1,2,17,2,0,3
246,1002,-3,2,-1,1,21,4,0,1
246,1002,-5,-6,0,-4,-11,-3,-3,2
260,1016,5,-3,-1,-4,7,-4,-1,-3
260,1016,-2,3,-1,2,22,1,0,-4
268,1025,-2,3,1,2,18,4,-1,0
268,1025,-2,-6,3,-2,-11,-4,-3,-3
283,1039,-3,-4,-1,-4,8,-1,-1,-4
283,1039,-3,1,-2,0,15,1,1,-4
283,1040,0,3,0,1,19,2,1,0
283,1040,0,-5,-1,-1,-13,-8,1,-1
305,1062,-2,-2,-1,-2,11,-1,-5,-4
305,1062,2,1,0,0,17,1,-1,2
306,1063,-5,4,-1,1,18,1,0,0
306,1063,1,-5,-1,-1,-11,-4,-1,1
320,1076,-1,-3,0,-1,15,-3,2,-2
320,1076,2,4,0,-1,12,4,0,1
328,1085,3,4,-1,0,14,4,0,0
328,1085,6,-6,0,0,-8,-8,0,-1
395,1107,-5,-2,-2,-2,12,0,-2,-1
395,1107,-2,2,0,0,27,5,0,0
395,1108,1,3,-1,2,24,4,0,2
395,1108,-2,-5,1,-1,-10,-5,-3,-3
395,1122,1,-5,-2,-1,13,-2,2,0
395,1122,0,2,0,-1,17,1,0,2
395,1123,-1,4,-1,-1,20,3,0,5
395,1123,-1,-7,0,-2,-10,-6,0,2
396,1144,3,-1,-1,-2,13,-1,0,-6
396,1144,-2,2,0,1,14,3,0,-2
396,1145,-1,5,0,0,17,1,1,2
396,1145,-2,-5,-1,-3,-4,-6,-3,3
448,1168,-2,-2,0,-3,12,-1,-3,-1
449,1168,2,2,-2,1,19,2,0,0
449,1169,1,3,-1,0,18,7,0,1
449,1169,-4,-7,0,-1,-8,-6,0,-6
450,1182,1,0,0,-1,26,1,-1,-3
450,1182,0,4,0,2,14,3,-1,1
450,1183,1,3,0,0,17,4,0,3
450,1183,0,-7,-1,-2,-2,-6,-1,-2
480,1205,2,1,-1,-2,27,1,2,-2
480,1205,-1,3,-1,0,18,1,1,3
480,1206,0,3,-2,0,19,5,2,3
480,1206,-3,-8,-1,-4,-5,-6,-2,-2
480,1235,0,1,0,-2,30,1,-2,0
480,1235,2,3,0,0,21,0,1,-1
480,1236,-3,3,-1,2,18,4,-1,1
480,1236,0,-5,1,-1,-3,-7,-3,0
486,1241,1,0,0,-1,21,0,-1,-5
486,1241,1,1,-2,0,8,5,0,-2
486,1242,1,3,-1,1,18,2,0,-2
486,1242,-2,-5,-2,0,-7,-8,0,-1
509,1265,-2,0,-1,-1,25,0,-2,-2
509,1265,2,3,-1,-1,4,3,-1,1
509,1266,-2,4,-1,-1,17,5,1,-1
509,1266,-3,-7,1,0,-9,-7,-2,-2
538,1294,1,2,-3,-2,20,-1,-1,-2
539,1294,0,-1,1,2,11,5,-1,-2
539,1295,0,4,0,0,15,5,0,1
539,1295,2,-7,-1,-2,-7,-6,-2,0
545,1302,-1,1,0,-2,16,1,0,-1
545,1302,-2,2,-1,1,13,-1,-1,4
546,1303,2,3,-2,1,12,2,1,1
546,1303,0,-5,0,0,1,-7,0,-2
568,1325,0,-1,-1,-2,14,0,0,-5
569,1325,-1,4,-1,-1,10,1,-1,-2
569,1326,1,2,0,1,11,4,-4,-1
569,1326,0,-7,0,-2,0,-8,-1,-3
591,1347,-2,2,0,-2,13,2,-1,-1
591,1347,0,2,-1,0,23,2,1,2
592,1348,-1,4,-1,2,14,5,0,4
592,1348,-4,-7,1,0,-2,-4,-4,0
605,1362,1,-1,0,-2,15,3,1,2
605,1362,-1,1,-1,1,16,4,1,0
606,1362,4,4,-1,2,13,2,0,4
606,1362,-1,-8,-1,-2,3,-10,-2,0
628,1384,1,1,-2,-2,12,0,1,-3
628,1384,1,3,-1,-2,16,2,0,0
630,1387,-2,7,-2,1,12,5,3,1
630,1387,-1,-7,1,-4,-1,-5,-1,-3
651,1408,-1,1,-1,0,20,1,-2,-2
651,1408,-1,2,-1,1,17,2,-1,-1
653,1409,3,4,0,2,13,5,0,2
653,1409,-1,-6,0,-2,2,-7,0,-1
664,1421,-2,2,0,-1,23,2,1,0
664,1421,-3,2,1,1,16,2,1,2
673,1430,1,3,0,1,14,4,1,3
673,1430,-3,-6,-2,-3,1,-8,-3,-3
688,1445,-2,2,-3,-1,26,3,-1,-4
688,1445,-1,3,-2,2,11,3,-1,0
690,1446,-1,4,2,4,14,3,1,1
690,1446,2,-9,-2,-1,5,-9,0,-1
711,1468,2,2,-1,-1,16,2,1,-2
711,1468,0,2,0,0,20,2,1,2
712,1469,-3,5,-1,1,14,4,-1,-2
712,1469,1,-7,1,-4,-1,-7,-2,-4
724,1481,1,2,-1,0,10,1,0,-4
724,1481,-2,4,-1,1,11,2,1,-1
733,1490,-1,6,1,1,12,3,2,3
733,1490,-1,-5,0,-1,4,-8,-2,-2
748,1505,1,2,1,-1,22,2,-2,1
748,1505,-1,1,2,0,8,2,0,4
750,1506,0,4,-3,1,13,4,-1,3
750,1506,-2,-7,-1,0,7,-5,0,-2
771,1527,1,1,0,1,14,3,1,-5
771,1527,1,3,-2,0,10,4,-1,1
772,1529,2,5,-1,0,12,3,1,5
772,1529,1,-5,-1,-3,0,-6,-3,1
793,1550,1,4,-1,-2,26,3,1,2
793,1550,1,3,1,2,5,1,-2,2
795,1551,-1,5,-1,-1,12,5,-1,0
795,1551,0,-8,-1,-3,7,-9,1,-5
816,1572,-2,1,0,0,18,2,1,-4
816,1572,-1,0,-1,1,18,3,1,4
817,1574,2,5,0,1,12,5,-1,1
817,1574,-2,-11,-1,-4,0,-6,-1,-1
831,1588,0,3,-1,-2,25,2,-1,1
831,1588,-1,2,0,0,21,3,1,0
832,1589,-2,2,0,2,15,3,1,4
832,1589,-4,-9,1,0,8,-7,-2,-5
844,1601,-1,2,0,0,20,5,1,-3
844,1601,2,2,-1,1,7,-1,-1,-1
853,1610,1,4,-1,-1,15,5,0,2
853,1610,0,-7,-1,-3,6,-9,-2,-2
869,1625,0,4,-1,0,27,4,0,-2
869,1625,3,2,0,1,14,1,-1,-1
874,1630,-5,2,0,3,14,3,-1,-1
874,1630,-1,-7,0,-2,6,-6,-2,-3
891,1647,1,4,-2,-1,11,2,-1,0
891,1647,1,3,0,-1,8,1,1,2
892,1649,2,3,-2,1,12,4,-1,3
892,1649,1,-9,0,-3,4,-7,-3,-2
905,1662,2,1,1,0,8,-1,1,-2
905,1662,-2,1,-1,0,10,1,-2,-2
913,1670,-2,1,-1,2,10,1,1,4
913,1670,-1,-7,0,-2,5,-8,-2,-2
936,1693,-3,1,0,-2,12,2,-2,-2
936,1693,2,2,-1,-1,9,1,1,0
937,1694,1,3,1,1,8,4,1,2
937,1694,-1,-10,0,-1,8,-8,-2,0
951,1708,-3,-2,-2,-1,11,3,1,0
951,1708,-4,3,1,0,14,-1,2,3
952,1709,-2,3,2,2,9,2,2,2
952,1709,-1,-5,0,-1,5,-7,-1,-3
973,1730,0,4,-2,0,14,3,0,-4
973,1730,0,-2,-2,1,10,3,-1,0
975,1731,-1,4,0,2,6,3,0,1
975,1731,0,-10,-1,-4,6,-9,-3,-4
989,1745,1,4,-2,-3,24,2,0,-2
989,1745,1,5,0,0,18,3,-1,1
990,1747,2,3,2,2,6,4,1,2
990,1747,-3,-10,-1,-3,4,-7,-1,-3
1011,1767,-3,3,-2,-1,20,4,2,1
1011,1767,0,0,-1,1,18,2,-1,0
1017,1774,0,4,-1,1,8,2,1,1
1017,1774,4,-10,-1,-3,5,-10,-3,-1
1041,1797,-1,4,-2,0,16,2,2,2
1041,1797,-1,2,0,1,24,2,-1,3
1043,1799,0,2,-1,2,8,3,0,4
1043,1799,-1,-8,0,-3,6,-8,-4,-4
1048,1805,1,4,0,3,26,4,0,1
1048,1805,-1,2,-1,0,10,0,0,1
1050,1806,-2,2,0,2,8,4,2,2
1050,1806,-2,-7,0,-4,6,-7,-2,-3
1071,1827,-2,4,-1,-2,14,4,0,-4
1071,1827,-1,3,-1,1,16,2,1,-4
1072,1829,3,3,-1,-1,7,0,1,2
1072,1829,-3,-7,-1,-1,3,-9,0,-4
1093,1850,1,3,0,-1,13,4,0,0
1093,1850,-1,1,-2,2,9,1,-1,3
1095,1851,1,0,1,2,6,0,0,2
1095,1851,-1,-7,-2,-2,7,-7,-1,1
1108,1865,0,4,-1,0,25,4,0,1
1108,1865,1,3,-1,0,9,3,0,2
1110,1866,0,0,1,1,8,2,-1,2
1110,1866,-2,-9,0,-3,6,-5,0,-4
1131,1888,1,6,-2,1,13,1,-2,3
1131,1888,0,3,0,-1,11,2,0,2
1132,1889,1,3,0,0,9,2,-1,1
1132,1889,3,-5,1,-4,6,-10,0,-5
1153,1910,-4,2,-1,1,13,3,-1,-2
1153,1910,1,2,-1,2,19,1,-1,-1
1155,1912,-1,-1,-1,1,4,0,0,1
1155,1912,-1,-8,-1,-4,8,-9,-4,-4
1168,1924,1,4,1,1,26,4,0,1
1168,1924,-1,2,-1,-2,9,0,0,2
1174,1931,1,0,0,2,6,0,-2,2
1175,1931,-1,-9,-1,-1,6,-7,-3,-4
1191,1947,2,3,1,1,15,4,0,-1
1191,1947,0,3,0,1,14,4,2,0
1192,1949,-1,1,-1,1,6,-1,0,2
1192,1949,-2,-6,0,-2,6,-9,-4,-6
1213,1970,0,3,-1,0,14,3,0,0
1213,1970,1,0,1,1,10,2,1,0
1215,1971,-2,0,-1,1,1,1,3,4
1215,1971,-1,-7,0,-3,7,-4,0,-3
1228,1985,3,4,-3,-1,26,2,-1,2
1228,1985,1,4,0,1,15,2,0,2
1242,1999,-3,-1,-1,1,2,-1,-1,3
1242,1999,-3,-7,0,-3,9,-8,-2,-2
1251,2007,2,0,0,1,12,6,0,0
1251,2007,0,0,-1,-1,12,2,0,0
1252,2009,0,1,0,0,1,-1,-3,-3
1252,2009,-1,-6,-2,-3,8,-6,-1,-3
1273,2030,0,5,0,0,5,3,3,-3
1273,2030,-1,2,0,1,9,1,2,2
1275,2031,-1,-1,-1,1,0,-1,-3,4
1275,2031,-4,-9,-1,-6,7,-5,-1,-4
1296,2053,-1,4,-2,0,3,0,0,1
1296,2053,0,2,0,-1,4,2,0,2
1297,2054,5,2,0,1,-8,-2,0,2
1297,2054,1,-8,1,-2,7,-8,-1,-5
1374,2068,1,1,-2,1,11,2,0,-3
1374,2068,1,2,1,1,12,0,0,2
1374,2069,-3,-3,0,2,3,-1,-2,0
1374,2069,-3,-7,-2,-1,8,-7,-2,-3
1374,2090,-2,4,2,-1,12,3,0,4
1374,2090,0,1,-2,0,10,1,0,1
1374,2091,2,0,1,-1,2,0,0,4
1374,2091,2,-8,-1,-3,4,-7,-1,-5
1374,2105,-1,1,-1,0,18,1,2,-3
1374,2105,0,0,0,0,15,3,0,0
1374,2111,1,-2,-1,0,-5,0,0,1
1374,2111,-1,-6,-1,-4,4,-9,-2,-1
1374,2128,-1,3,-3,-1,13,3,0,3
1374,2128,0,3,-2,0,18,2,-2,0
1374,2129,-2,-2,2,-1,-3,-4,-1,1
1374,2129,-1,-8,1,-3,6,-7,-1,-1
1393,2150,0,2,2,-2,13,3,0,0
1393,2150,-4,3,0,1,22,3,2,-2
1395,2152,0,-3,-2,0,-8,-1,0,-1
1395,2152,1,-7,-1,-2,8,-7,-1,-4
1408,2165,2,3,1,0,14,4,-1,0
1408,2165,-1,0,-3,1,13,0,1,0
1414,2171,-2,-1,0,1,-1,-2,1,1
1414,2171,0,-7,-1,-1,6,-4,-2,-5
1431,2188,1,3,0,1,9,2,0,1
1431,2188,-2,4,-1,0,15,3,-1,2
1432,2189,0,0,1,0,-2,-3,0,-1
1432,2189,-2,-6,-1,-4,6,-4,-2,-6
1452,2209,0,2,-1,-1,16,1,-1,-3
1452,2209,3,0,0,0,14,2,-2,-1
1461,2217,-3,-4,0,0,-1,-2,-2,3
1461,2217,-1,-6,0,-2,7,-5,0,-1
1467,2224,0,5,-1,-1,17,3,-1,-1
1467,2224,-3,2,2,0,13,2,-1,0
1476,2232,0,-5,-1,0,-3,-3,3,1
1476,2232,-1,-4,-1,-4,8,-3,1,-1
1491,2248,-1,0,-1,1,11,1,0,1
1491,2248,1,3,-3,0,17,3,1,2
1492,2249,-1,-3,0,-1,-7,-3,-1,0
1492,2249,-2,-6,-1,-3,7,-6,-4,-1
1513,2270,0,3,-1,0,17,2,1,0
1513,2270,-1,2,1,1,14,4,1,2
1515,2271,0,-3,0,-1,-10,-2,1,-1
1515,2271,1,-5,-2,-2,9,-3,-2,-2
1527,2284,1,3,-1,3,11,3,1,1
1527,2284,0,1,0,1,14,2,0,-1
1536,2292,-3,-5,0,1,-9,-3,-2,-1
1536,2292,-1,-6,-1,-1,6,-5,-2,-6
1558,2315,-2,2,0,0,11,3,0,2
1558,2315,-1,3,0,0,18,0,0,2
1560,2317,0,-5,1,-1,-13,-3,-2,3
1560,2317,-1,-3,-1,-3,6,-4,-2,-3
1573,2330,0,3,0,2,15,2,0,-1
1573,2330,0,4,-2,-1,18,3,1,0
1575,2331,-2,-4,2,0,-6,-3,0,1
1575,2331,1,-6,0,-2,6,-5,-2,-6
1587,2344,2,1,0,-1,10,4,3,4
1587,2344,-1,3,1,2,11,2,-2,-1
1596,2352,0,-4,1,1,-6,-6,1,-2
1596,2352,-3,-3,1,-2,9,-5,1,-1
1611,2367,-1,2,0,0,28,4,0,-1
1611,2367,2,1,-1,0,16,2,-1,0
1612,2369,0,-4,0,1,-5,-4,-4,-2
1612,2369,1,-3,-2,-1,13,-4,-2,-4
1633,2390,0,3,0,1,8,2,2,1
1633,2390,1,1,-1,1,18,3,0,6
1635,2392,-1,-3,-1,-3,-9,-5,-2,0
1635,2392,-2,-7,1,-3,4,-4,0,-4
1647,2404,-1,3,-1,1,11,3,0,1
1647,2404,2,3,-1,1,11,1,-1,2
1656,2412,1,-2,0,-2,-15,-5,0,1
1656,2412,-4,-6,-3,-3,10,-4,-4,-5
1671,2427,0,3,-1,0,17,2,1,0
1671,2427,-1,2,0,0,10,2,1,0
1672,2429,-1,-4,0,-1,-3,-5,-1,-1
1672,2429,3,-4,-1,-3,13,-4,-2,-4
1693,2450,0,1,0,0,7,1,-3,-3
1693,2450,-2,2,-3,2,19,4,1,0
1695,2451,-1,-4,1,0,-7,-6,1,0
1695,2451,-1,-4,-1,-2,6,-3,-2,-1
1707,2463,-1,3,-1,0,10,2,-1,-2
1707,2463,-2,0,0,2,16,3,-2,2
1716,2472,1,-7,0,0,-10,-4,-1,0
1716,2472,1,-2,-1,-3,12,-1,0,-2
1731,2487,3,3,-1,-1,17,4,3,0
1731,2487,1,4,-2,0,19,3,-3,1
1732,2489,0,-4,1,1,0,-5,-3,0
1732,2489,-1,-1,0,-2,11,-3,-3,-3
1752,2509,-1,4,0,-1,15,0,0,0
1752,2509,0,5,-2,-1,23,3,2,2
1761,2518,-2,-4,1,0,-7,-5,-1,-1
1761,2518,-2,-5,0,-3,9,-3,1,-1
1767,2524,0,1,0,1,16,1,-2,1
1767,2524,-1,2,-1,-2,13,0,0,1
1776,2533,1,-6,-2,-2,-5,-6,-1,-1
1776,2533,-1,-3,-2,-1,15,-2,-1,-3
1792,2548,0,1,0,0,13,2,0,1
1792,2548,2,4,0,1,18,5,0,2
1793,2550,-2,-5,0,0,-1,-4,-1,-1
1793,2550,2,-5,0,-2,16,-2,0,-7
1813,2570,0,2,1,-2,22,1,0,0
1813,2570,0,3,0,3,16,6,1,-1
1815,2572,-1,-5,1,-1,-2,-6,-3,1
1815,2572,0,-1,-1,-3,11,-2,-1,-2
1827,2584,1,2,-2,1,10,4,-2,3
1827,2584,-2,2,1,2,21,4,3,4
1836,2593,2,-7,1,-2,-4,-6,0,1
1836,2593,-5,-3,-2,-2,13,-3,0,-3
1851,2608,-1,3,0,0,17,2,1,1
1851,2608,0,6,-1,0,17,5,-1,0
1852,2609,0,-3,-1,0,-3,-3,-1,0
1852,2609,1,-4,-2,0,16,0,-2,-3
1873,2630,-1,1,-1,0,16,1,-1,-1
1873,2630,1,2,0,1,15,3,0,1
1875,2631,-2,-6,0,-3,-8,-9,0,-5
1875,2631,-1,-1,-1,-3,13,-1,-2,-4
1887,2644,1,2,0,1,10,3,2,-1
1887,2644,1,4,0,1,16,3,1,2
1896,2653,-3,-7,-1,-3,-7,-7,1,0
1896,2653,-2,-2,-1,-2,15,0,0,-2
1911,2668,-1,1,-1,0,8,1,1,5
1911,2668,-1,2,-2,2,17,4,1,3
1912,2669,1,-5,-1,-3,-4,-5,-2,-2
1912,2669,-2,1,-1,-2,19,-2,-1,-3
1933,2689,1,3,0,1,14,1,-2,-2
1933,2689,0,5,-2,-2,21,4,-1,-1
1935,2692,-1,-4,1,0,7,-6,-4,1
1935,2692,3,-1,0,-3,19,-1,1,-4
1956,2713,2,3,1,0,19,2,0,3
1956,2713,-2,4,-1,1,17,5,1,3
1957,2714,0,-8,0,0,-7,-5,-1,-2
1957,2714,1,-1,-2,-2,20,0,-1,-2
1971,2727,-1,3,-1,0,20,2,-1,-1
1971,2727,1,3,0,0,16,3,0,0
1972,2729,-2,-8,1,-3,7,-4,-1,0
1972,2729,-3,-1,-1,0,10,-1,1,-2
1993,2750,-2,1,-1,-1,10,2,0,-1
1993,2750,-1,3,-1,3,19,4,0,4
1995,2752,-4,-6,-2,0,-3,-8,0,-3
1995,2752,0,1,-2,0,16,0,0,-2
2016,2772,0,2,0,0,11,4,1,-1
2016,2772,0,6,1,2,17,2,1,-3
2017,2774,1,-7,-2,-2,-16,-8,0,-4
2017,2774,-2,1,-2,-3,7,-1,-2,-2
2038,2795,0,1,0,1,13,0,-1,4
2038,2795,0,2,-2,0,15,3,1,5
2040,2796,0,-5,1,-1,-11,-4,-3,-1
2040,2796,-2,-2,0,-3,11,0,-1,-2
2053,2810,-2,2,-2,-1,5,1,-1,-1
2053,2810,1,4,0,2,14,4,1,0
2055,2812,-2,-7,0,-2,-6,-8,-1,-3
2055,2812,2,3,0,-1,13,0,0,-1
2076,2833,-1,4,-1,-1,10,3,2,4
2076,2833,0,6,-1,3,11,3,0,2
2077,2834,1,-8,1,-2,-12,-8,-3,0
2077,2834,-1,1,1,0,16,1,0,-1
2090,2847,2,1,-1,1,20,1,2,0
2090,2847,-2,4,-1,1,16,3,1,2
2098,2855,-3,-7,0,-2,1,-7,-1,-2
2098,2855,1,0,-3,-2,17,4,1,-2
2113,2870,0,0,2,0,9,1,0,-2
2113,2870,1,4,-1,-1,15,4,0,2
2115,2872,0,-8,1,-2,-1,-8,-1,-4
2115,2872,0,-1,-1,-1,23,2,0,-1
2136,2892,-3,3,-2,2,11,3,1,1
2136,2892,-2,2,0,-1,13,3,-1,1
2137,2894,-1,-8,0,-2,-2,-9,-3,-5
2137,2894,-1,3,-2,-3,20,1,0,-3
2150,2906,-1,1,-1,0,16,3,1,-2
2150,2906,-2,4,0,1,11,4,2,1
2157,2914,2,-7,0,0,2,-9,-2,-1
2157,2914,2,2,-1,-2,22,1,-3,3
2173,2930,0,2,-1,1,14,2,-1,5
2173,2930,-5,5,0,3,13,5,1,4
2175,2931,-2,-8,0,-4,-3,-7,-1,-2
2175,2931,1,2,0,0,21,2,-1,-4
2196,2953,2,3,-1,0,5,0,1,-1
2196,2953,4,5,-2,1,15,6,-1,4
2197,2954,-3,-9,2,-1,5,-8,-2,-1
2197,2954,1,1,-3,0,21,3,0,1
2210,2967,0,1,-3,0,15,1,-1,-1
2210,2967,1,4,0,2,11,5,2,-2
2217,2973,-2,-6,-1,-2,4,-9,0,-5
2217,2973,0,3,-1,-2,25,3,0,-4
2233,2990,1,3,1,2,16,1,0,-1
2233,2990,1,3,1,3,14,3,0,4
2235,2991,-3,-9,-1,-2,0,-5,-4,-1
2235,2991,0,3,-1,-2,25,3,2,-3
2263,3020,-1,2,1,0,8,1,-1,0
2263,3020,-2,4,-2,1,13,4,1,4
2265,3022,-2,-8,0,-1,3,-8,0,-1
2265,3022,1,3,0,0,21,2,1,-2
2270,3027,0,2,1,0,10,3,0,2
2270,3027,-2,4,1,1,13,5,1,1
2277,3034,0,-9,-3,-2,-3,-8,-2,3
2277,3034,0,3,-2,-1,19,3,-1,-3
2293,3050,2,3,-1,0,10,0,0,-1
2293,3050,1,3,2,4,13,4,1,0
2295,3051,-3,-6,0,-2,5,-4,0,-2
2295,3051,-1,2,1,1,20,2,1,0
2316,3073,-1,2,-1,1,10,4,0,1
2316,3073,-1,4,0,0,11,2,-1,2
2317,3074,0,-7,1,-3,6,-10,-2,-4
2317,3074,3,3,1,0,22,1,2,1
2330,3087,-1,2,1,-1,23,4,2,1
2330,3087,0,4,-1,3,10,5,-1,5
2337,3094,1,-8,-2,-2,5,-9,-1,-1
2337,3094,1,3,0,-1,24,2,-2,-2
2353,3110,-3,3,-2,0,11,2,-1,-3
2353,3110,1,5,0,1,13,7,-2,2
2355,3112,-1,-5,1,-1,4,-7,-1,-3
2355,3112,-2,2,-1,2,14,0,1,-6
2375,3133,2,3,0,1,13,2,1,0
2376,3133,-2,1,-3,0,11,2,2,2
2382,3139,0,-9,1,-2,4,-8,-1,1
2382,3139,0,0,-2,-2,19,3,1,3
2390,3147,2,5,-2,1,8,3,-2,4
2390,3147,2,5,0,-1,8,3,-1,1
2397,3153,0,-6,0,-3,5,-8,-2,-4
2397,3153,1,5,0,0,19,3,-1,-3
2414,3171,-1,0,-2,-1,9,-1,1,-3
2414,3171,1,5,-1,3,5,3,0,2
2415,3172,-1,-10,0,-2,4,-7,0,0
2416,3172,0,3,1,1,16,2,0,1
2436,3192,-3,2,0,0,3,3,1,3
2436,3192,0,3,-1,2,13,5,1,4
2438,3194,-1,-9,0,-4,6,-9,-2,-3
2438,3194,-1,0,-1,0,16,3,-1,0
2449,3206,0,2,-2,1,10,2,-1,1
2449,3206,4,4,0,3,2,1,0,2
2458,3215,-3,-8,-2,-4,4,-6,-2,-6
2458,3215,-4,3,1,-1,20,3,1,0
2473,3230,1,0,1,2,8,2,0,0
2473,3230,-1,2,0,1,9,1,1,1
2475,3232,2,-8,0,-2,6,-8,-1,-4
2475,3232,1,4,-2,-1,21,3,-1,-2
2496,3252,-1,3,-1,0,11,2,0,0
2496,3252,1,2,0,3,7,3,2,2
2497,3254,-3,-9,0,-3,7,-7,-4,-5
2497,3254,-3,3,1,-2,19,4,0,-1
2509,3267,-2,1,-1,1,17,3,1,2
2510,3267,0,2,0,0,7,2,1,2
2518,3275,-2,-8,1,-2,5,-9,0,-3
2518,3275,3,3,-1,0,24,4,1,-3
2533,3289,0,1,-1,1,20,1,0,1
2533,3289,-1,2,0,2,7,3,-1,4
2541,3297,-1,-8,0,-1,9,-7,-4,-2
2541,3297,-3,4,1,-1,24,3,0,-1
2556,3312,1,2,0,-1,11,2,1,1
2556,3312,0,5,0,0,11,3,1,1
2557,3314,1,-8,-2,-1,6,-10,-2,-3
2557,3314,2,2,-1,1,19,4,2,0
2569,3326,-1,4,0,1,13,2,0,1
2569,3326,-2,2,0,3,9,0,1,3
2578,3335,-2,-7,-1,-2,6,-5,-1,-3
2578,3335,1,4,-3,0,19,5,-1,1
2594,3350,2,1,1,-1,16,2,1,2
2594,3350,2,3,0,2,5,3,1,0
2595,3352,1,-7,-2,0,9,-9,0,-4
2595,3352,0,3,-1,1,23,2,2,-2
2616,3372,0,2,-1,-1,11,0,0,3
2616,3372,-1,1,0,0,1,1,-1,2
2617,3374,-1,-8,1,-4,9,-8,-2,-2
2617,3374,0,5,-2,-3,16,5,0,0
2629,3386,-1,1,1,0,13,0,-1,0
2629,3386,1,3,0,0,5,2,0,4
2638,3395,1,-5,-1,-4,7,-7,-2,-4
2638,3395,0,4,-1,2,12,3,0,1
2653,3410,-2,2,0,2,15,4,-1,0
2653,3410,0,0,0,1,2,0,0,3
2655,3411,-1,-8,-1,-6,8,-8,-4,-3
2655,3411,0,3,-1,-1,15,2,1,0
2676,3432,0,1,-1,1,12,3,-1,-2
2676,3432,-2,0,0,1,2,0,1,-3
2677,3434,1,-9,2,-1,7,-6,0,-6
2677,3434,2,2,-1,-1,18,4,2,1
2689,3446,0,3,-1,0,11,0,-1,3
2689,3446,0,0,1,0,-3,0,2,6
2698,3455,-1,-9,1,-3,8,-8,-3,-5
2698,3455,2,5,0,0,15,2,1,0
2713,3470,0,1,0,1,11,3,1,-1
2713,3470,0,1,2,0,-1,0,-1,1
2715,3472,0,-8,0,-4,6,-5,-1,-2
2715,3472,1,3,0,0,7,3,0,2
2736,3492,-2,3,0,1,11,2,-4,2
2736,3492,0,2,0,0,-4,0,-1,3
2737,3494,0,-7,-1,-2,9,-7,0,-4
2737,3494,-1,4,0,1,11,2,-1,-1
2750,3506,0,2,0,-1,11,1,2,-1
2750,3506,-3,-1,-1,1,-4,0,-3,-1
2758,3516,-2,-8,0,-2,9,-7,1,-5
2758,3516,1,4,-1,0,11,4,0,-2
2773,3530,0,1,-1,0,7,2,-1,-2
2773,3530,2,-1,2,2,-4,-2,0,0
2848,3531,-1,-6,-2,-4,7,-7,-1,-2
2848,3531,-3,2,1,1,14,1,1,-2
2848,3552,1,3,-1,-3,6,1,2,0
2848,3552,-1,-2,0,0,-3,0,0,-1
2848,3554,-2,-8,-2,-1,8,-7,-5,-2
2848,3554,-2,4,-1,0,13,1,0,-2
2848,3566,0,3,-1,2,12,2,1,1
2848,3566,1,-3,-1,1,-9,-3,2,3
2848,3575,0,-6,-1,-2,5,-6,0,-1
2848,3575,2,0,0,-1,15,2,1,5
2848,3590,-1,1,1,1,8,2,0,1
2848,3590,1,-2,-1,-1,4,-2,0,0
2848,3592,-1,-5,-1,-2,6,-7,0,-2
2848,3592,-1,4,-2,0,13,3,1,2
2856,3612,-2,0,0,1,11,2,1,2
2856,3612,0,-2,1,-1,-5,-1,-1,3
2857,3614,-1,-6,1,-3,7,-2,-2,-9
2857,3614,0,2,0,0,18,4,0,0
2878,3635,-1,2,0,-1,14,1,0,2
2878,3635,0,-4,1,-1,1,-1,0,4
2880,3636,0,-5,0,-4,8,-5,-2,-1
2880,3636,1,4,0,1,13,3,1,-4
2893,3649,3,1,-1,1,22,1,1,-1
2893,3649,1,-3,-1,0,2,-4,-2,1
2895,3652,-1,-5,1,-2,8,-7,-1,-4
2895,3652,-1,2,0,-1,20,4,-1,1
2916,3673,-1,2,0,1,15,0,-1,-1
2916,3673,-1,-1,1,0,-3,-2,1,-4
2917,3674,-3,-6,-2,-1,6,-5,-2,-4
2917,3674,-2,1,-2,0,12,1,0,1
2938,3695,1,3,-2,1,15,5,2,0
2938,3695,1,-2,-1,0,2,-4,-2,1
2940,3697,-2,-6,-2,-5,6,-6,-1,-4
2940,3697,-2,2,0,1,12,2,1,0
2961,3717,-1,1,1,-1,21,5,0,2
2961,3717,-3,0,1,1,-7,-4,-1,-1
2962,3719,6,-6,1,-3,10,-6,-3,-3
2962,3719,-1,3,-1,1,20,1,1,1
2976,3732,-1,3,-2,1,13,2,-2,-2
2976,3732,-1,-2,-1,0,-9,-2,-1,1
2977,3734,-2,-8,-2,-4,9,-6,-3,-4
2977,3734,1,1,0,-3,10,2,-3,0
2999,3756,1,2,0,0,11,2,-1,1
2999,3756,-1,-3,0,-1,-9,-2,1,1
3000,3757,-3,-6,-2,-2,8,-4,-2,-5
3000,3757,1,3,1,1,10,2,2,-4
3013,3770,-2,2,1,1,24,5,-1,1
3013,3770,1,-3,2,3,-12,-4,-2,1
3019,3776,2,-4,0,-2,9,-8,0,-2
3020,3776,0,2,0,0,14,2,0,-2
3036,3793,-2,1,-1,0,10,0,0,1
3036,3793,0,-3,1,0,-13,-1,-2,4
3042,3798,-1,-6,0,-1,8,-5,-1,-2
3042,3798,1,4,-1,1,10,2,1,-1
3058,3814,2,2,1,1,9,2,-1,0
3058,3814,-1,-5,-3,-1,-17,-4,-4,-2
3060,3817,-3,-6,-1,-4,6,-4,-1,-5
3060,3817,-1,3,-1,0,14,2,0,3
3073,3829,0,3,-2,-1,30,3,1,1
3073,3829,0,-4,-1,0,-11,-4,-2,1
3079,3836,0,-4,1,1,9,-4,-3,-7
3079,3836,2,2,1,0,11,4,-1,-2
3096,3852,1,2,-1,-1,5,2,2,2
3096,3852,1,-3,1,-1,-8,-4,0,2
3097,3854,-2,-3,-1,-5,9,-3,-1,-2
3097,3854,-2,1,-1,-1,14,3,0,2
3119,3875,0,2,0,1,10,1,-2,3
3119,3875,-1,-6,0,-2,-13,-4,-2,-1
3120,3877,-2,-5,-1,-2,8,-5,-1,-3
3120,3877,-1,2,-1,2,12,3,-1,-1
3133,3889,-3,3,-1,-1,21,3,0,2
3133,3889,-3,-2,0,0,-9,-5,1,-1
3139,3896,-1,-4,0,-4,9,-2,1,-5
3139,3896,2,3,-2,-1,9,2,-1,-2
3156,3912,1,2,-3,0,0,2,-2,-1
3156,3912,1,-6,-1,-1,-15,-6,-1,-1
3157,3913,-2,-3,1,-2,11,-2,0,-1
3157,3913,1,4,0,0,5,2,2,4
3186,3942,0,2,0,0,4,2,1,3
3186,3942,0,-5,0,-1,-10,-5,-1,-2
3187,3944,0,-6,-1,-2,8,-6,-1,-3
3187,3944,-1,0,-2,1,7,4,-1,-1
3193,3949,-2,3,-2,0,6,1,-2,2
3193,3949,-4,-5,0,-1,-13,-6,-1,-1
3200,3956,0,-3,0,-1,7,-4,-3,-3
3200,3956,-1,2,1,0,15,0,1,0
3216,3972,-2,3,1,1,13,3,4,1
3216,3972,-1,-4,-1,0,-9,-5,0,1
3217,3973,0,-5,-1,-5,9,-2,-1,0
3217,3973,-2,3,-1,-1,15,1,0,0
3238,3995,-1,3,0,1,15,4,0,-1
3238,3995,0,-4,1,-1,-11,-6,1,-2
3240,3997,0,-2,-1,-2,7,0,-2,-5
3240,3997,1,2,0,1,12,3,-1,1
3253,4009,0,2,-1,2,18,2,-1,0
3253,4009,4,-5,1,0,-13,-5,-2,-2
3259,4016,-3,-2,-1,-2,8,-3,-1,-5
3259,4016,2,3,0,-1,23,1,0,2
3275,4031,1,4,1,0,21,2,1,0
3275,4031,0,-6,0,-1,-9,-6,-1,2
3283,4040,1,-1,-2,-3,10,-4,-1,0
3283,4040,-2,3,-1,0,8,3,0,2
3298,4054,-3,3,0,0,14,5,2,2
3298,4054,-4,-9,0,-1,-9,-3,-3,1
3300,4056,0,-2,-1,-2,8,-1,0,-4
3300,4056,1,1,-2,2,18,4,1,-1
3313,4069,2,2,-2,-1,17,3,0,-1
3313,4069,-1,-4,-1,-2,-15,-6,0,-2
3319,4075,0,-2,1,-3,14,-1,0,-3
3320,4075,1,1,0,1,13,0,2,1
3336,4092,0,5,-1,1,14,5,1,2
3336,4092,-3,-7,1,0,-4,-6,-1,-4
3337,4094,-1,-1,0,0,11,0,-2,-5
3337,4094,0,3,-2,0,10,3,0,-1
3358,4115,-3,4,0,1,11,4,-1,2
3358,4115,-1,-6,-1,-1,-12,-5,-3,3
3360,4116,3,-2,0,-2,14,-3,1,-4
3360,4116,0,2,-1,-1,14,4,-1,1
3372,4128,-1,5,-1,-1,16,4,0,6
3372,4128,-3,-5,0,-1,-13,-7,-3,1
3381,4138,-2,-1,-2,-4,13,-2,-3,-4
3381,4138,0,2,0,1,13,2,-2,1
3396,4153,0,2,-1,1,14,1,-1,2
3396,4153,-1,-4,0,0,-3,-5,0,0
3397,4154,-1,-2,-2,-1,16,-2,-1,-2
3397,4154,1,1,0,0,8,1,2,0
3425,4181,2,1,-2,1,17,2,1,1
3425,4181,2,-3,1,-2,1,-6,1,-2
3434,4190,0,1,-3,0,26,-1,0,-2
3434,4190,-2,3,-1,-1,18,5,-1,-2
3435,4191,0,3,0,3,19,4,1,2
3435,4191,1,-6,-1,-2,-4,-7,-4,-3
3441,4198,0,-1,-1,-3,21,2,0,-3
3441,4198,-2,2,1,-1,16,4,1,2
3456,4212,-2,3,0,1,20,5,-1,0
3456,4212,-2,-6,-1,-3,-6,-6,-1,-2
3457,4214,1,0,-1,-4,20,0,1,-4
3457,4214,2,4,-2,0,19,-2,-1,2
3478,4235,0,2,-2,1,20,5,-1,1
3478,4235,-1,-7,1,2,-1,-6,-1,-4
3480,4236,-1,0,-1,-2,21,1,0,-4
3480,4236,1,2,-2,0,14,2,0,-2
3492,4248,4,6,0,0,21,3,1,1
3492,4248,-2,-6,-1,-2,-4,-5,-1,0
3501,4258,-4,-2,-1,0,13,0,0,-2
3501,4258,0,2,0,1,9,1,1,1
3516,4273,-2,4,-1,-2,15,3,0,3
3516,4273,2,-9,0,-1,-7,-7,0,-2
3517,4274,0,1,0,0,18,1,0,-2
3517,4274,-1,-1,1,0,12,3,1,2
3538,4294,2,3,-2,1,15,4,-2,1
3538,4294,-3,-5,2,-2,-2,-5,-2,-3
3540,4297,0,1,-1,-2,17,0,0,0
3540,4297,-2,0,0,0,6,0,-2,1
3552,4309,0,6,0,3,14,5,-1,1
3552,4309,0,-8,-1,-4,1,-8,0,-3
3561,4317,0,0,-1,0,14,-2,-2,0
3561,4317,1,3,-2,0,5,1,2,0
3576,4333,-1,5,-1,2,13,4,2,-1
3576,4333,2,-6,-2,-1,-2,-8,2,-1
3577,4334,-3,1,-1,0,26,1,-1,-1
3577,4334,-1,2,0,1,16,2,0,-1
3598,4355,-3,4,1,2,13,6,2,4
3598,4355,0,-7,-1,-2,2,-7,-2,2
3600,4356,1,2,-2,-1,21,3,-1,-1
3600,4356,-2,2,0,0,11,3,-2,-2
3612,4369,-2,6,-1,1,15,4,1,1
3612,4369,-4,-8,0,-2,0,-6,-2,-5
3621,4378,3,2,-2,-1,15,4,-1,-3
3621,4378,2,4,1,2,17,2,1,2
3636,4392,-1,3,0,1,12,6,0,3
3636,4392,-2,-9,-2,-2,0,-9,-1,0
3637,4394,1,0,-2,-2,25,3,2,0
3637,4394,1,2,1,-1,9,5,0,1
3658,4415,-1,2,1,0,13,3,-1,2
3658,4415,-1,-7,0,-3,7,-9,-1,0
3660,4417,-1,3,-2,0,13,4,0,-4
3660,4417,1,2,-1,0,8,2,1,-2
3672,4429,2,5,-1,3,13,4,2,2
3672,4429,-4,-9,0,-2,3,-8,-3,-5
3681,4437,0,1,-1,0,23,2,0,1
3681,4437,-2,3,-1,0,12,1,-1,1
3703,4460,2,1,-1,0,12,4,1,3
3703,4460,-1,-8,0,-3,5,-7,-3,-4
3705,4461,-1,8,-2,-1,27,5,2,-1
3705,4461,-1,2,-1,0,8,4,0,3
3719,4475,-1,1,1,3,14,-2,1,3
3719,4475,4,-5,-1,-4,5,-7,-3,0
3721,4476,-2,4,0,-1,27,4,-1,0
3721,4476,-1,2,-1,1,6,1,-1,2
3733,4489,-2,0,-1,0,11,0,0,1
3733,4489,-1,-9,0,-2,8,-7,-1,-5
3741,4497,0,7,0,-1,22,7,1,0
3741,4497,1,2,-1,2,8,2,-2,3
3763,4520,1,-2,0,1,8,1,1,3
3763,4520,0,-8,-2,-3,5,-7,0,-5
3765,4521,1,8,0,2,24,10,0,0
3765,4521,0,2,-1,1,0,2,1,1
3778,4534,-2,-1,0,0,8,-4,0,0
3778,4534,-4,-8,1,-4,6,-7,0,-5
3780,4536,1,7,0,1,18,9,-1,-1
3780,4536,0,1,-2,2,5,3,2,0
3792,4549,-1,-6,-1,0,-1,-3,-2,-1
3792,4549,0,-10,-1,-4,7,-8,-3,-3
3801,4557,3,13,-1,4,19,11,4,9
3801,4557,1,4,2,2,-1,2,1,5
3816,4572,-2,-7,0,-1,-2,-6,-1,-2
3816,4572,-3,-6,-2,-4,2,-7,-3,-6
3817,4573,3,15,-3,2,22,15,0,6
3817,4573,0,3,1,2,4,3,1,4
3838,4594,2,-13,2,-4,-25,-13,-2,-4
3838,4594,-2,-5,1,-4,18,-6,-1,-12
3840,4596,0,16,-1,5,30,17,5,0
3840,4596,0,3,-1,2,-14,4,-2,3
3861,4617,-1,-15,-1,-5,-44,-17,-3,-3
3861,4617,-1,-6,-1,-5,22,-5,-3,-7
3862,4619,-1,22,1,5,24,22,0,11
3862,4619,-3,1,1,4,-7,1,-2,9
3876,4632,-3,-25,0,-4,-72,-28,-4,-5
3876,4632,1,-3,-1,-7,52,-2,0,-10
3877,4634,3,30,-1,8,42,32,6,13
3877,4634,-1,1,-2,4,-18,0,0,9
3899,4654,-2,-28,-2,-6,-88,-28,-8,-8
3899,4654,0,-6,-3,-8,31,-5,1,-13
3900,4656,2,25,-1,6,32,22,7,6
3900,4656,0,4,1,4,-15,1,1,2
3921,4678,-2,-25,2,-6,-75,-25,-3,-6
3921,4678,-1,-5,-1,-7,23,-5,-1,-9
3922,4679,0,21,0,5,27,21,2,8
3922,4679,1,3,0,4,-16,2,0,6
3936,4692,0,-18,0,-5,-47,-17,-5,-4
3936,4692,1,-5,1,-5,22,-2,0,-6
3937,4694,1,17,-1,7,23,18,5,5
3937,4694,-3,-1,-1,3,-17,1,-3,2
3958,4715,-2,-14,1,-3,-45,-17,-4,-4
3958,4715,-1,0,-2,-5,23,1,-1,-6
3960,4716,2,10,-2,3,16,10,3,4
3960,4716,-2,-2,-1,0,-11,-1,1,1
3981,4737,-1,-10,1,-5,-29,-10,-1,-5
3981,4737,0,-1,-1,-2,22,0,-1,-5
3982,4739,-1,5,0,1,11,8,1,4
3982,4739,0,0,1,2,-4,-2,-2,2
3995,4752,-1,-6,-1,-2,-16,-7,1,0
3995,4752,1,-3,-1,-2,13,-3,0,-1
4002,4759,0,7,1,1,10,6,-1,2
4002,4759,1,1,0,0,-1,3,0,5
4018,4774,-2,-7,0,1,-17,-9,-4,0
4018,4774,3,-2,0,0,16,0,-2,-2
4020,4776,0,6,-1,3,8,5,1,4
4020,4776,-1,-1,0,0,-5,-2,0,3
4041,4797,-3,-6,0,-1,-21,-7,2,-2
4041,4797,-1,0,0,-2,10,2,-1,-3
4043,4799,-2,4,0,1,6,4,2,-2
4043,4799,-1,-2,-1,-2,-6,-1,1,-1
4055,4812,1,-5,-1,0,-2,-4,1,-3
4055,4812,0,-1,-1,-2,9,-3,-2,0
4062,4818,0,5,-1,-1,7,5,-2,2
4062,4818,0,0,0,2,-7,-2,-4,-1
4079,4835,-2,-3,1,-2,-9,-3,-3,-2
4079,4835,-1,0,-2,-1,7,0,0,-2
4080,4837,1,3,0,0,4,1,1,2
4080,4837,-2,-2,0,-2,-1,0,1,0
4101,4857,0,-3,1,-1,-15,-3,0,-1
4101,4857,-1,1,-1,-1,7,0,3,-2
4102,4859,1,1,0,1,3,3,1,-2
4102,4859,0,0,-1,1,-4,0,1,-2
4115,4872,3,-2,0,-1,-9,-3,-2,-1
4115,4872,0,-2,0,-3,5,-1,0,-1
4122,4879,0,3,-2,1,3,3,2,3
4122,4879,0,0,-1,-2,-2,0,-2,2
4138,4895,-1,-2,-1,-2,-9,0,-1,-1
4138,4895,-2,2,0,-2,5,-1,-1,1
4140,4896,-1,1,0,0,-2,-1,-2,1
4140,4896,-3,0,0,0,0,0,-1,1
4161,4918,1,-2,-1,0,-2,-3,-2,2
4161,4918,2,2,0,0,8,2,1,0
4162,4919,1,-1,1,-1,-2,1,2,1
4162,4919,1,1,1,0,-3,0,3,1
4175,4932,-1,-2,0,-1,-5,-3,1,-1
4175,4932,0,0,-2,0,3,0,-1,-1
4182,4939,-2,2,-1,1,4,1,0,0
4182,4939,0,-1,-1,0,6,-1,-2,-1
4198,4955,-2,-2,-1,-1,-10,-2,-1,-3
4198,4955,1,1,0,-1,7,0,0,-2
4200,4957,-2,-2,0,-2,0,-1,-4,3
4200,4957,-2,0,0,1,-5,2,0,-1
4221,4977,0,0,1,0,2,0,2,-1
4221,4977,-1,1,-1,0,1,0,1,-2
4222,4979,-1,1,0,0,1,2,0,0
4222,4979,0,0,1,0,-2,-1,0,-2
4235,4992,-2,1,0,-2,-1,-1,-2,-1
4236,4992,-1,-2,-2,0,-4,1,-1,-1
4242,4998,2,-1,-1,-1,5,0,0,0
4242,4998,1,1,0,-2,3,-1,0,1
4258,5015,-1,-2,0,0,-9,1,0,-3
4258,5015,0,-1,-2,0,-4,-2,0,-1
4260,5016,0,-1,-1,-1,2,0,-2,0
4260,5016,-1,-1,-1,1,-5,0,-1,0
4281,5037,-1,-2,0,0,-9,-3,-1,1
4281,5037,-2,-2,0,0,-8,1,1,3
4282,5039,0,-2,1,0,-7,-1,-2,-1
4282,5039,-1,-1,1,-1,-8,0,-2,2
4295,5052,0,-2,-1,-1,-5,-1,-2,2
4295,5052,-1,0,0,0,-6,0,-1,0
4302,5058,0,1,0,-1,-4,-1,-2,-3
4302,5058,-2,-1,-1,0,-7,-1,-2,-2
4318,5074,-2,0,-2,-1,-6,-2,-3,-2
4318,5074,2,-2,0,0,-3,0,-1,-1
4324,5081,1,2,0,-1,2,-1,1,3
4324,5081,0,-2,-1,-1,-5,0,0,3
4341,5098,2,0,-3,0,-3,1,1,1
4341,5098,-2,0,-1,3,4,0,0,-1
4342,5099,-3,0,-1,0,-3,-1,0,-2
4342,5099,1,-1,0,-1,-3,-2,-1,0
4354,5111,-1,1,0,0,-1,-1,1,-2
4355,5111,0,0,1,-2,-5,0,-3,-2
4363,5120,0,0,-2,1,1,-1,0,-4
4363,5120,0,-1,-1,0,4,-2,0,-4
4378,5135,0,0,0,0,1,0,1,1
4378,5135,1,1,-1,-1,2,1,0,0
4380,5137,-1,1,1,-1,-3,1,-1,-2
4380,5137,0,-1,0,-1,5,0,1,-2
4401,5158,0,-1,1,0,3,2,1,2
4401,5158,1,1,-1,0,7,0,0,2
4402,5159,0,-2,-1,-1,1,0,1,2
4402,5159,2,0,-1,1,1,-2,0,-1
4423,5180,0,-2,0,0,1,-1,1,1
4423,5180,-2,-1,1,-1,-2,-2,-1,0
4425,5182,1,0,-1,-1,-3,-1,0,0
4425,5182,-1,1,0,-1,-2,1,-2,0
4438,5195,3,0,0,-1,-2,0,1,-2
4438,5195,2,0,0,1,-2,-1,0,-3
4440,5197,0,1,-1,0,9,0,0,3
4440,5197,-1,-1,-2,-1,1,0,0,1
4461,5217,-1,1,-1,0,-3,0,-2,1
4461,5217,-1,0,0,-1,6,0,1,0
4462,5219,-1,-1,0,0,-1,-1,-1,-1
4462,5219,0,0,0,0,-3,-4,2,1
4474,5231,-2,0,1,0,0,0,-2,1
4474,5231,-2,-1,0,-1,-2,-1,-1,-3
4483,5240,-1,-1,-1,1,-3,0,1,-4
4483,5240,-2,0,-1,-1,-2,-1,0,-2
4498,5255,2,0,0,-1,11,0,-1,-1
4499,5255,0,1,-1,-2,-6,0,0,-1
4500,5257,1,0,0,1,6,-1,0,-1
4500,5257,0,1,0,-2,3,1,-2,0
4521,5277,1,1,-1,1,-2,0,0,-1
4521,5277,-1,-2,-1,1,5,-1,-1,-1
4522,5279,1,1,-1,0,3,-3,-2,0
4522,5279,-1,1,-1,2,-6,-1,2,0
4534,5291,0,1,-1,-1,-6,1,0,2
4534,5291,0,-1,-1,-2,4,-1,1,3
4543,5300,0,-1,-1,-1,0,-1,0,-1
4543,5300,0,-2,-1,0,3,0,-4,-2
4558,5315,-2,0,0,0,3,2,0,0
4558,5315,-1,-3,2,0,1,1,-2,1
4560,5317,0,-1,-2,-1,4,0,0,-1
4560,5317,1,0,0,-1,5,0,1,-2
4581,5337,0,-1,-1,0,-1,-1,1,-1
4581,5337,-1,2,0,-3,-4,-1,1,1
4582,5338,-4,-2,0,-2,0,0,-2,-2
4582,5338,-3,1,0,1,-1,1,-1,-2
4594,5351,0,2,0,2,-1,0,0,0
4594,5351,-1,-3,0,0,-7,-1,-3,2
4603,5360,0,0,-2,-2,-3,2,2,0
4603,5360,2,-1,-1,2,2,-1,-3,0
4617,5374,-3,-3,-2,2,-3,-1,-2,-3
4617,5374,-2,-2,-1,1,4,0,-1,0
4626,5383,1,0,0,0,1,-2,2,-1
4626,5383,0,-1,0,-1,-7,-2,2,-1
4641,5397,0,-2,0,0,3,-1,0,0
4641,5397,0,2,-1,-3,-3,-1,0,-1
4642,5399,0,-1,0,-1,-6,-3,-2,1
4642,5399,-2,-1,0,-1,-2,-1,0,1
4654,5411,0,0,0,-1,-12,-1,0,0
4654,5411,-3,-1,1,-1,-4,-1,1,-3
4663,5420,-3,1,0,2,-1,2,0,1
4663,5420,-1,-3,0,1,-9,-2,1,0
4678,5435,1,0,-2,0,-3,-1,-2,0
4678,5435,2,0,-1,1,-5,-1,-1,-1
4680,5436,0,0,-1,-2,-1,0,1,0
4771,5436,0,-1,0,0,-3,1,-1,-1
4771,5458,1,-1,-1,0,-9,-2,1,-3
4771,5458,2,0,-2,-3,-3,2,1,-2
4771,5459,-4,-3,1,0,-7,-2,-1,-1
4771,5459,-4,1,-1,-1,0,2,-2,0
4771,5471,0,-2,0,-3,-4,0,-1,-1
4771,5471,0,-1,-2,2,-1,1,2,-1
4771,5480,1,0,-1,1,-2,-1,1,-2
4772,5480,0,-1,0,0,4,0,1,0
4772,5494,-2,-2,0,0,-8,-1,0,1
4772,5494,-2,-1,0,0,5,-3,0,0
4772,5497,1,1,-1,-1,1,1,1,1
4772,5497,-3,0,-1,0,9,-1,-2,-1
4772,5517,2,-2,2,-1,2,-1,-3,2
4772,5517,2,1,-1,-1,7,1,-2,-1
4772,5519,1,0,-1,-1,10,0,-3,-3
4772,5519,-1,1,-2,-2,-1,2,-1,-1
4783,5540,-1,2,1,0,2,-3,1,1
4783,5540,-3,0,0,-1,3,0,-2,0
4785,5541,-2,-1,-1,1,3,-2,0,1
4785,5541,2,-1,0,-2,2,0,-1,1
4798,5555,-1,1,-1,0,6,0,0,0
4798,5555,0,0,-1,0,-4,-1,-1,-3
4800,5556,2,0,0,-2,6,1,0,-1
4800,5556,0,0,-1,-1,7,0,-1,-3
4821,5577,0,-1,1,-1,-2,-3,1,-2
4821,5577,1,1,-1,-1,3,0,-1,2
4822,5579,-2,0,-2,0,5,1,-1,2
4822,5579,0,-1,0,-1,-3,1,0,1
4843,5600,-1,0,-1,-3,0,0,-1,0
4843,5600,-1,-1,-1,0,5,-1,-2,-2
4845,5601,-3,-1,1,-1,2,-2,-2,-3
4845,5601,0,0,-1,-1,-1,-2,0,1
4858,5615,-2,-1,0,1,2,1,-1,2
4858,5615,-1,-2,1,0,-4,1,1,0
4864,5621,2,1,-2,0,2,2,1,2
4864,5621,-1,1,0,-1,-2,-2,1,0
4881,5637,-2,0,2,-1,-5,0,-2,0
4881,5637,0,0,-1,-1,-5,0,1,2
4882,5639,0,-1,0,-2,5,1,0,3
4882,5639,1,1,0,0,1,0,-1,0
4903,5660,1,1,-3,-1,4,1,1,0
4903,5660,-3,-2,2,-1,4,0,-2,-1
4905,5661,-4,-2,0,-2,-3,-1,-2,-2
4905,5661,-2,1,-2,0,2,0,0,-3
4918,5675,-1,-1,-1,0,13,1,1,0
4918,5675,3,1,-4,-2,3,-1,0,0
4924,5681,1,0,-1,0,1,-1,-1,0
4924,5681,-1,-2,-1,-1,-1,1,0,1
4941,5698,0,-1,0,3,-3,-1,-2,-1
4941,5698,-1,1,-1,0,3,0,1,1
4942,5699,1,-1,0,1,0,-1,1,0
4942,5699,1,0,-1,0,3,-2,0,0
4963,5720,1,-1,-1,-2,-7,0,-2,0
4963,5720,-1,1,-2,-1,2,-1,0,1
4965,5721,0,2,0,0,-1,-1,0,0
4965,5721,-1,-2,1,0,3,1,-1,0
4978,5734,-1,-2,-2,-1,7,2,-1,0
4978,5734,0,-1,1,-1,2,0,-1,0
4984,5741,-1,-1,0,-1,4,1,-1,0
4984,5741,-2,0,0,-2,1,-1,0,0
5001,5757,-1,0,0,0,-8,-1,1,0
5001,5757,0,0,-2,1,0,-2,-1,0
5002,5759,-2,-2,0,-1,0,-1,-2,-1
5002,5759,0,0,1,-2,-1,0,0,1
5023,5780,-2,-2,-1,0,-15,0,0,-2
5023,5780,0,-1,0,-2,-6,-2,1,-2
5025,5781,-1,1,1,1,-6,-1,0,1
5025,5781,0,-1,-1,0,-9,-1,0,-3
5038,5795,-2,-1,-1,0,-8,-2,2,-2
5038,5795,-2,0,0,1,-6,-1,2,-2
5044,5801,1,0,1,-2,-8,-1,0,-2
5044,5801,0,-1,0,1,-6,-1,-1,2
5061,5817,-1,0,1,-1,-7,-1,-3,-1
5061,5817,0,-2,-1,2,-9,0,-3,0
5062,5819,-1,-2,0,0,-6,-3,0,-2
5062,5819,0,1,0,-2,2,1,-1,-2
5083,5840,0,-1,1,0,-9,-2,-1,-1
5083,5840,0,-1,0,2,4,-1,1,-1
5085,5841,1,0,0,-2,-2,1,2,0
5085,5841,4,1,-1,-1,-2,2,0,1
5098,5854,-4,-3,0,0,-7,-2,0,1
5098,5854,-2,-1,-1,-1,1,1,-2,2
5104,5861,0,1,-1,-2,-4,1,0,1
5104,5861,0,-2,1,-1,-1,0,0,1
5121,5878,1,1,-2,-2,-2,-1,0,-1
5121,5878,0,-1,0,-1,-1,1,0,1
5122,5879,-2,-1,-1,0,1,-2,-1,-1
5122,5879,-2,0,0,0,-4,0,-2,0
5151,5908,1,0,0,0,-1,-1,0,0
5151,5908,0,0,0,-1,2,-1,-1,-2
5152,5909,2,-1,0,2,-1,0,2,-4
5152,5909,0,1,-1,1,-2,1,0,-2
5228,5914,-1,-1,1,0,2,0,1,-2
5228,5914,-1,1,-1,-3,1,1,0,0
5228,5923,-2,0,0,-1,2,-1,-3,0
5228,5923,-2,1,-2,0,4,1,0,-1
5228,5938,3,-2,0,0,-4,0,-1,0
5228,5938,1,0,-1,0,7,1,0,0
5228,5940,2,-1,-2,2,6,1,1,1
5228,5940,-1,-1,-1,-1,-2,-1,-2,1
5228,5960,1,-2,2,-2,3,0,1,-1
5229,5960,-1,1,0,-2,-1,0,-1,0
5229,5961,-1,-1,0,-2,-4,0,1,-2
5229,5961,0,0,-1,-1,3,0,1,-1
5229,5975,-1,-1,-2,0,-1,-1,2,0
5229,5975,0,-1,-2,-1,0,-2,0,1
5229,5981,-2,-1,-2,1,1,1,-3,-2
5229,5981,-2,2,0,0,-1,1,1,-1
5241,5997,-4,-1,-2,0,-5,-1,-1,-1
5241,5997,-2,-1,0,-1,5,-1,-1,-3
5242,5998,-2,-1,1,0,6,0,-1,-1
5242,5998,1,0,0,-1,-1,-3,0,-2
5263,6020,0,-1,0,1,-2,1,0,0
5263,6020,1,1,0,-1,-5,1,0,1
5265,6021,1,2,-2,1,-3,0,-2,0
5265,6021,-1,-3,0,1,1,0,-1,3
5286,6043,-2,2,-1,-2,3,1,-2,-1
5286,6043,-2,1,-1,-1,-2,-1,-1,-1
5286,6043,-1,-1,-1,-1,-13,0,2,-4
5286,6043,-1,0,-1,-1,2,0,2,0
5300,6057,1,-1,0,-1,0,0,-1,0
5300,6057,0,-1,0,0,-1,0,0,-2
5301,6058,2,0,1,-1,-2,-1,-1,3
5301,6058,0,0,0,1,2,0,0,2
5323,6079,0,-3,-1,-1,2,0,0,-1
5323,6079,0,2,0,-1,5,1,1,0
5323,6080,0,-2,-1,0,-7,-1,0,1
5323,6080,-2,0,-1,1,-1,-1,-1,-1
5346,6102,-1,0,1,-1,3,-2,0,-2
5346,6102,0,-1,-1,1,3,0,-1,-3
5346,6103,-1,1,-2,-2,3,0,-2,-1
5346,6103,1,0,1,0,-1,0,1,0
5368,6124,-1,-1,0,-1,4,-2,2,1
5368,6124,-1,-1,0,-1,4,0,-1,-2
5369,6125,2,0,-2,0,14,0,-1,-2
5369,6125,1,-1,-2,1,4,1,-3,-1
5383,6139,2,0,0,-2,0,-2,-1,0
5383,6139,-1,0,2,0,2,0,0,5
5383,6140,0,0,0,0,3,0,0,3
5383,6140,0,2,2,-1,-12,1,1,-2
5406,6163,-2,1,0,-1,2,-1,-1,-2
5406,6163,0,-1,-2,1,-1,-2,0,0
5512,6163,-1,0,1,-1,-12,-2,0,-1
5512,6163,0,-1,-2,-1,-3,1,0,-1
5512,6185,-1,0,0,0,2,-1,0,-2
5512,6185,1,0,1,-2,-10,-1,-2,-2
5512,6185,0,-1,-2,1,-11,-1,-1,-1
5512,6185,1,-1,1,-1,-6,-3,0,0
5513,6199,0,-1,0,2,-2,-1,-2,0
5513,6199,-2,-1,-1,0,-5,1,0,0
5513,6200,-3,0,-1,-1,-13,-2,0,0
5513,6200,-3,0,0,0,-9,-1,0,1
5513,6223,0,0,-1,-1,-2,0,1,2
5513,6223,2,1,0,0,0,0,0,1
5513,6223,-2,0,2,0,-10,3,-1,-2
5513,6223,1,0,0,-1,-4,-1,-1,-3
5513,6236,0,-2,0,0,3,1,-1,-2
5513,6236,1,-1,0,-1,-2,0,-3,-1
5513,6237,0,0,1,0,1,-1,0,0
5513,6237,-1,2,-2,0,-3,-1,-1,2
5513,6259,-2,0,0,1,0,-1,-1,0
5513,6259,0,0,-2,1,4,0,0,-4
5513,6260,-1,1,1,-1,6,0,0,-4
5513,6260,-1,-3,-1,0,2,2,-1,-2
5526,6282,1,-1,-2,-3,-2,1,1,0
5526,6282,-1,0,-1,-1,-7,-1,2,2
5526,6284,1,0,-2,0,13,1,1,1
5526,6284,-2,1,-1,0,0,-2,-1,-1
5569,6297,1,-1,-1,0,-9,-2,-2,-1
5569,6297,-1,-1,0,0,-1,0,0,-2
5569,6297,-2,0,0,1,4,-1,0,1
5569,6297,2,1,1,-3,-1,-3,1,0
5569,6319,0,0,1,0,3,-1,-1,-1
5569,6319,1,1,-2,-1,0,2,-1,1
5569,6320,-3,-1,-3,0,-6,2,1,2
5569,6320,-3,-1,0,1,5,0,-3,3
5586,6342,-3,0,-1,-1,5,-1,1,-2
5586,6342,0,-1,0,-2,-7,0,1,0
5586,6343,0,1,-1,-2,-2,1,0,1
5586,6343,-1,-1,-1,-2,2,-3,3,0
5600,6356,1,-1,0,0,-4,1,0,0
5600,6356,-1,-2,0,-1,2,1,-2,0
5601,6357,1,0,-1,-2,-13,-1,-2,-3
5601,6357,0,-2,0,2,-5,0,-1,-2
5623,6379,0,-1,-2,-1,-1,1,0,1
5623,6379,0,0,0,1,2,0,2,1
5623,6380,1,-1,0,-1,-9,-2,-1,0
5623,6380,1,0,-1,-1,1,1,1,-1
5646,6403,-2,-2,0,1,-3,-1,0,0
5646,6403,-2,1,-2,-1,-4,0,-2,1
5646,6403,-2,-1,0,-1,-3,0,-1,-3
5646,6403,0,-2,0,0,-3,0,0,-1
5660,6417,3,-1,0,-1,-10,-2,0,-1
5660,6417,1,-1,-1,0,6,-1,0,0
5661,6417,1,-2,1,-1,-8,-1,0,2
5661,6417,-1,0,0,-1,-4,-2,-1,-1
5683,6439,-3,-4,0,-1,2,-1,-2,-1
5683,6439,-2,2,-1,2,-2,1,2,-1
5683,6440,0,-1,0,0,-5,1,0,-1
5683,6440,-1,1,-1,0,1,2,2,2
5706,6463,-1,0,1,-1,-4,-2,1,-2
5706,6463,-1,-2,-1,1,-6,-2,-1,-3
5707,6463,-3,1,-1,2,10,1,-1,-2
5707,6463,0,1,-1,0,-2,0,-2,-1
5720,6477,3,1,-1,0,21,-2,-2,0
5720,6477,0,-3,0,0,3,1,-1,-1
5721,6477,1,1,0,-1,16,-2,-2,1
5721,6477,2,-3,0,0,-2,0,-2,0
5743,6499,-1,0,-1,0,10,1,-1,0
5743,6499,-1,0,0,1,1,1,0,2
5743,6500,1,1,-1,-1,4,0,-1,0
5743,6500,-2,-1,1,2,-1,-1,-1,-1
5766,6523,2,-2,-1,0,4,2,-1,-2
5766,6523,-1,0,-1,-1,9,0,-3,-2
5766,6524,-2,-1,2,-2,-2,-1,0,-1
5766,6524,-1,0,-2,0,-4,-1,0,-2
5780,6537,-3,1,-2,-1,0,0,1,0
5780,6537,0,-2,-1,0,-3,0,-2,1
5781,6538,1,0,-1,0,1,0,0,0
5781,6538,1,-1,-1,0,-1,0,0,1
5803,6560,1,1,-1,0,-2,-2,-2,3
5803,6560,0,0,0,-1,-3,1,0,0
5804,6560,0,-1,-1,0,9,1,-1,0
5804,6560,-1,0,-1,1,-9,-4,0,-1
5907,6582,-2,-2,2,-1,-3,-2,1,-1
5907,6582,0,0,0,-1,1,-1,0,0
5907,6583,1,-2,0,1,-3,-1,-1,1
5927,6583,-1,-2,0,-1,-4,0,0,0
5943,6597,-1,-1,-1,-1,1,3,1,-1
5943,6597,-2,0,0,0,-4,1,0,-1
5943,6598,0,-1,-1,1,-1,0,1,0
6032,6598,1,0,0,-1,1,-1,1,-3
6032,6619,0,-2,0,-2,7,-2,-1,0
6032,6619,-1,0,-1,-2,-2,-1,0,-3
6032,6620,-2,0,-2,-1,9,0,-1,-2
6032,6620,-1,0,-1,3,2,0,-1,-1
6032,6659,-2,-3,-1,1,-7,0,0,-2
6032,6659,2,2,-2,-2,-3,1,0,1
6033,6660,-1,0,0,-2,1,-2,1,0
6033,6660,-2,-1,1,1,0,0,-1,1
6033,6661,1,0,0,0,-1,-1,-1,-3
6033,6661,1,-1,-1,1,9,-1,-3,-3
6033,6664,-1,0,-1,-2,-4,1,2,-1
6033,6664,-1,0,0,-3,-2,2,-1,-2
6033,6679,-2,3,0,-1,6,0,2,0
6033,6679,-1,0,1,1,2,1,-1,4
6033,6680,0,-1,0,-1,-3,-2,-3,2
6033,6680,1,-2,-1,-1,2,0,0,1
6033,6703,-1,-1,-1,-1,7,-2,-1,-1
6033,6703,-1,-2,1,-1,-1,-1,3,-2
6033,6703,-3,0,-2,0,6,0,1,-1
6033,6703,1,-1,-1,0,-6,0,0,2
6033,6716,-3,0,-3,1,-7,-1,-1,0
6033,6716,0,-1,1,0,10,-2,0,0
6033,6717,2,-1,0,1,-2,-1,-2,3
6033,6717,-1,-2,0,-1,0,0,-1,-2
6042,6739,2,-2,-1,0,-4,-1,0,-5
6042,6739,0,1,-1,-1,1,0,0,-2
6042,6740,0,1,1,-1,2,-1,2,-2
6042,6740,1,-1,-1,0,5,0,1,0
6042,6770,2,1,0,-1,7,2,-3,0
6042,6770,-1,0,-1,0,7,2,-1,-1
6042,6770,-2,-1,-1,0,5,-2,-1,-2
6042,6770,-1,0,0,-2,-1,-3,-2,0
6042,6777,-2,-3,-2,1,-19,-3,0,-2
6042,6777,-2,0,-1,0,-11,0,1,0
6042,6777,-1,0,0,0,1,1,1,-3
6042,6777,0,0,-1,0,1,0,0,-1
6042,6799,0,0,1,-2,11,1,0,2
6042,6799,0,0,0,-1,-15,-1,0,3
6043,6800,1,-1,-2,0,-4,0,-1,2
6043,6800,-1,1,-1,-1,0,-2,2,2
6066,6822,0,-2,-2,0,10,0,0,1
6066,6822,-2,-1,-2,-1,-5,0,-1,-2
6066,6823,-2,-1,-1,0,2,0,-1,0
6066,6823,-1,-1,0,-1,0,-1,-3,-2
6080,6837,-1,-2,-1,2,0,-2,2,2
6080,6837,-1,1,0,-1,-2,-1,-3,0
6081,6837,-1,0,-1,-1,4,0,-2,-2
6081,6837,1,1,-2,-1,6,0,1,-3
6103,6859,1,0,1,0,7,0,-1,-4
6103,6859,0,-3,-2,0,3,0,2,-1
6103,6860,0,-2,0,0,3,1,0,-1
6103,6860,1,-1,1,0,-1,-1,-1,-3
6126,6883,-2,1,0,-3,12,1,0,-1
6126,6883,-1,0,2,-1,21,2,-2,-4
6126,6883,1,-1,0,0,0,-2,-1,1
6126,6883,-1,0,-1,-1,3,-1,-2,1
6140,6897,0,0,1,-2,8,1,-1,0
6140,6897,2,2,-2,1,1,-2,0,0
6141,6897,0,-1,-1,0,-3,1,-1,0
6141,6897,0,-2,0,-1,-5,-1,1,2
6163,6919,4,0,0,-3,-2,-3,1,2
6163,6919,3,0,-2,-1,0,-2,-1,-1
6163,6920,2,1,0,-1,3,0,-1,1
6163,6920,-3,1,-2,0,-9,-1,-2,-2
6186,6943,-3,-1,0,-1,-15,-1,-2,-2
6186,6943,0,1,0,-2,-2,1,0,2
6186,6943,1,-1,0,-1,-11,0,-1,2
6186,6943,1,0,1,0,-10,-1,-2,1
6211,6957,-4,1,0,1,-1,0,0,0
6211,6957,-1,0,-3,-1,-3,-2,0,0
6211,6958,-1,0,0,-2,1,0,0,-1
6211,6958,1,-2,0,-1,3,-1,2,0
6222,6979,-2,-2,0,0,2,0,-3,-2
6222,6979,1,0,-1,0,-2,0,0,1
6223,6979,-1,2,-1,1,8,-1,-1,-1
6224,6979,-2,-2,0,1,-2,0,-3,-1
6246,7003,3,1,1,-1,7,-1,2,1
6246,7003,0,2,3,-1,4,2,0,-1
6246,7003,1,-2,-2,-1,-2,0,0,-2
6246,7003,-1,0,-1,-1,3,-1,0,0
6261,7016,0,0,-1,-1,5,0,-1,-3
6261,7016,-3,-1,-1,1,6,0,1,-1
6261,7018,-2,-2,0,0,5,-1,0,-3
6261,7018,0,1,0,-2,3,0,1,2
6282,7039,0,-3,0,-1,-3,-1,-1,1
6282,7039,-2,-2,-2,-1,5,0,-1,0
6290,7047,0,0,0,1,3,-2,0,2
6290,7047,1,0,-1,1,8,2,-1,-3
6306,7063,1,1,0,-1,5,1,2,-2
6306,7063,0,-2,-1,-3,-2,0,-1,-1
6307,7063,0,0,-1,-2,3,-1,-1,1
6307,7063,0,0,0,-1,1,-2,0,3
6319,7076,1,1,-1,1,9,1,-1,3
6319,7076,1,-1,1,1,6,-1,1,1
6327,7085,-1,0,0,1,3,1,0,1
6328,7085,1,0,3,-1,1,0,-1,-2
6343,7099,0,-1,-3,-2,9,1,0,-5
6343,7099,-1,2,-2,0,-2,-1,0,-1
6343,7100,1,1,-1,-2,2,2,-1,-2
6343,7100,2,-4,-1,-3,2,1,2,-2
6366,7123,1,-1,-2,-1,8,1,-2,2
6366,7123,-2,1,0,0,4,0,2,0
6366,7123,-1,2,-1,1,8,-1,-1,0
6367,7123,-1,0,-2,0,-3,-1,2,-1
6379,7136,-1,0,0,2,-5,-2,0,0
6379,7136,-1,-3,0,-1,-10,-1,-3,2
6388,7144,0,-1,-2,0,-3,1,1,-3
6388,7144,-1,-1,0,-1,4,1,2,-1
6403,7159,0,0,-1,0,11,0,1,0
6403,7159,1,2,-1,0,-13,-2,-2,1
6403,7160,-1,1,0,-1,5,2,0,0
6403,7160,-2,-1,0,0,-1,-3,-3,-2
6426,7182,1,-3,-1,0,7,-1,0,-3
6426,7182,0,0,0,-2,1,0,-2,-3
6426,7183,0,0,-1,-3,3,-1,-2,0
6426,7183,-1,1,0,0,2,-2,-1,1
6439,7196,-2,1,-1,1,2,0,0,1
6439,7196,-1,-2,-1,1,5,0,-1,2
6448,7204,0,-2,-1,-1,3,-1,-1,-1
6448,7204,-2,1,0,-1,-3,1,-2,-2
6463,7219,2,1,1,-1,4,0,0,-2
6463,7219,3,-2,-1,-1,9,1,1,0
6463,7220,0,0,2,2,6,-1,1,0
6463,7220,0,-2,-2,1,-2,-1,-2,0
6486,7243,-3,-1,1,0,-7,2,0,0
6486,7243,1,0,0,0,14,0,1,-2
6487,7243,1,0,-2,0,-6,-1,0,-2
6487,7243,1,0,-1,0,7,-2,0,-3
6508,7264,1,1,1,-2,6,2,-1,0
6508,7264,-3,-1,-1,-1,-5,-1,1,-2
6509,7265,-1,0,0,2,2,0,1,0
6509,7265,-1,-1,-2,0,-2,-2,0,3
6531,7287,0,1,-2,-1,0,0,1,2
6531,7287,-2,0,0,-1,-3,1,-2,3
6531,7288,-2,1,0,-3,-10,-1,1,-1
6531,7288,-1,-1,0,-2,-9,0,1,-2
6546,7303,0,1,1,2,4,-2,0,-1
6546,7303,4,-1,-2,0,-2,0,-1,-3
6546,7303,0,2,-1,-1,-3,0,-1,0
6546,7303,2,-2,1,-1,-4,-1,0,3
6559,7316,-3,-1,-1,-3,-5,0,-1,-1
6559,7316,-2,-1,2,0,1,0,1,1
6568,7324,0,-2,-1,1,-4,-2,-2,0
6568,7324,0,-2,0,1,-5,2,-3,0
6583,7339,2,-3,0,-1,-7,-1,1,2
6583,7339,0,0,0,1,-3,0,0,-2
6583,7340,-2,-1,1,2,2,-3,1,-1
6583,7340,0,0,-1,-2,-1,-2,-1,1
6614,7370,0,1,0,0,4,-1,0,0
6614,7370,-2,2,-1,-2,-6,-1,-1,0
6614,7371,-2,-2,0,0,-1,0,-1,0
6614,7371,-3,-2,-1,1,4,-1,0,-3
6619,7376,1,0,-1,-1,8,0,-1,-2
6619,7376,2,0,-2,-1,6,-2,0,-2
6628,7384,0,1,0,1,4,1,-1,-4
6628,7384,0,0,-1,1,6,-2,2,-1
6643,7399,-1,-2,0,-2,10,1,0,-2
6643,7399,-1,2,0,-1,9,0,0,-2
6643,7400,1,0,-2,-3,1,1,0,-1
6643,7400,2,-3,-2,1,13,0,-1,1
6666,7423,-3,2,-2,-1,8,0,0,-2
6666,7423,0,1,1,1,0,-1,-2,-1
6667,7423,2,-3,0,-1,0,-3,-1,2
6667,7423,0,-1,1,-1,4,-2,-2,-2
6688,7445,1,0,-1,0,-5,0,0,3
6688,7445,1,-1,-1,0,2,0,0,4
6689,7445,-3,-2,0,0,3,1,-1,2
6689,7445,-1,-2,0,-1,-2,0,-1,1
6703,7460,-2,-3,-1,-1,20,-1,-1,-4
6703,7460,-1,2,0,-1,0,0,0,0
6703,7460,-1,2,0,-2,9,-1,3,1
6703,7460,-1,1,0,0,3,0,-1,0
6726,7483,-3,1,1,-2,3,0,-1,-3
6726,7483,-1,0,-3,0,2,0,-1,-2
6727,7483,1,0,0,0,14,1,-1,-2
6727,7483,-1,-2,0,-1,-6,-2,-1,2
6765,7520,0,2,0,-1,6,1,-1,0
6765,7520,0,0,0,-1,2,1,1,0
6765,7522,0,0,1,0,-9,1,-1,-2
6765,7522,0,-1,-1,-1,-1,-1,2,0
6767,7523,1,2,-1,1,-15,0,-3,0
6767,7523,0,-1,0,-1,-5,0,-1,-2
6770,7527,-1,-1,0,0,-2,0,-2,3
6770,7527,0,-1,-1,0,4,-1,-2,-3
6786,7543,-2,1,-1,2,-7,1,-1,0
6786,7543,0,-1,0,0,7,1,-1,0
6786,7543,-2,1,-4,-1,5,0,-1,2
6786,7543,-3,1,-1,-2,1,-1,0,1
6808,7565,0,-1,-1,-2,7,-1,0,0
6808,7565,2,-1,-1,0,-1,0,-1,1
6809,7566,1,0,-1,0,0,-2,0,3
6809,7566,1,0,-1,0,1,0,2,0
6823,7579,2,0,-1,1,-12,-1,0,-3
6823,7579,0,0,0,0,-3,0,1,-1
6823,7579,-1,1,1,-1,4,-2,1,-4
6823,7579,-1,-1,1,-1,0,1,0,-1
6846,7602,-2,0,2,0,15,1,-1,0
6846,7602,-1,0,-1,1,6,1,-2,0
6847,7603,-1,1,-1,0,2,2,0,0
6847,7603,-1,0,-2,0,4,1,1,-3
6868,7625,0,-1,1,1,8,0,0,0
6868,7625,0,-1,0,1,-3,-2,1,-1
6869,7626,-2,0,-1,-1,1,-1,-1,0
6869,7626,-2,1,0,1,1,-1,-3,1
6883,7639,-2,0,-1,-1,1,0,-1,-1
6883,7639,-2,1,0,-2,2,-2,0,-1
6883,7640,2,-2,1,1,-7,1,1,-1
6883,7640,-1,-2,0,-2,-4,-2,0,-4
6906,7663,0,1,-2,-1,0,0,-1,3
6906,7663,-1,0,-3,0,-5,-1,0,-1
6906,7663,0,-1,-1,2,-9,1,-2,1
6906,7663,-4,-1,0,0,-3,1,1,-2
6928,7685,-1,-1,-2,-3,3,-1,1,1
6928,7685,0,-1,1,-1,-8,-1,0,3
6929,7685,-1,-1,0,0,0,-2,0,2
6929,7685,3,-3,-2,0,-1,0,0,1
6942,7699,0,-1,-1,1,-24,0,-1,1
6943,7699,0,1,-2,0,-3,-2,-2,-4
6943,7700,1,-1,-1,-2,-7,0,-1,-1
6943,7700,-2,-1,-1,0,-3,-1,0,-3
6966,7723,-1,0,-1,1,0,1,1,2
6966,7723,-2,-1,-2,0,-2,-3,2,1
6966,7723,1,0,-1,-1,-2,-2,-1,0
6966,7723,-2,0,0,-1,-1,-2,-3,-2
6988,7745,0,-1,-1,0,-3,-2,-1,-3
6988,7745,0,-1,0,-1,0,0,-2,-3
6989,7746,0,-1,-1,-1,0,-1,0,-3
6989,7746,0,-2,0,-1,5,-2,-1,0
7003,7759,-2,0,0,0,-13,-1,1,-3
7003,7759,0,-1,2,1,2,-1,4,1
7003,7760,1,1,-2,-2,-3,0,2,0
7003,7760,3,-2,-2,-1,8,0,0,2
7025,7782,2,1,-1,-1,12,0,1,0
7025,7782,-1,-2,0,-1,1,0,-2,0
7032,7789,0,0,-1,0,1,1,0,2
7032,7789,0,-1,-1,1,-1,-1,0,0
7048,7805,0,2,-1,-1,15,2,0,1
7048,7805,-3,-1,1,-1,7,0,-1,2
7049,7806,-2,0,0,0,0,-1,2,1
7049,7806,1,-1,0,-2,2,0,0,1
7062,7819,-3,0,0,0,-15,-4,-2,-1
7062,7819,0,0,-1,-1,-3,2,-1,-2
7063,7819,-1,0,-1,-1,1,-2,0,-4
7063,7819,0,0,0,0,6,-1,1,-3
7086,7843,2,1,-1,1,0,2,-2,-1
7086,7843,0,0,0,0,0,-1,-1,3
7086,7843,0,-1,0,-1,1,1,0,0
7086,7843,0,4,-2,-1,-7,-1,-1,-2
7108,7865,-1,-1,-1,-1,13,2,0,0
7108,7865,-1,0,0,0,-4,1,1,-1
7109,7866,-1,-1,1,-1,-2,0,-1,-1
7109,7866,-1,-1,0,0,2,0,0,1
7123,7880,0,0,-1,0,9,1,-2,-1
7123,7880,0,-1,-1,-1,-1,0,1,-1
7123,7880,0,-1,-1,1,-1,-1,-1,-1
7123,7880,1,-1,0,-1,-1,-2,-3,0
7145,7902,2,1,0,0,6,-3,-2,3
7145,7902,-1,1,0,-3,3,-1,2,1
7146,7903,-1,-1,0,0,4,0,2,1
7146,7903,-2,-2,0,-1,3,-2,0,-2
7168,7925,-1,-2,-1,1,6,1,1,-2
7168,7925,1,1,-2,0,7,1,0,-3
7169,7926,0,-1,0,1,-2,1,0,2
7169,7926,0,0,0,-1,-1,0,0,-1
7182,7938,-1,0,0,-2,-2,-2,2,1
7182,7938,-3,0,0,-1,-1,-1,-3,-2
7190,7946,0,-2,0,-1,2,1,-1,-2
7190,7946,1,-2,-2,-1,1,0,1,-2
7206,7962,0,0,-1,-1,0,0,0,1
7206,7962,2,0,-1,2,2,0,-1,2
7206,7963,0,-2,-1,-2,-2,0,-1,1
7206,7963,0,0,-1,0,9,0,-1,1
7228,7985,0,4,0,0,7,0,-1,-2
7228,7985,-1,1,1,0,8,2,-1,-2
7229,7985,0,0,1,-1,7,0,-1,-2
7229,7985,0,-2,-1,0,5,-2,0,0
7242,7999,1,-1,-1,-1,7,-1,0,-2
7242,7999,1,0,0,0,4,-2,0,-2
7250,8007,-1,0,1,-1,-1,0,-1,-1
7250,8007,-2,1,1,0,2,-1,2,2
7266,8023,0,-2,1,-1,7,-2,-1,3
7266,8023,1,0,-1,-1,-5,-2,-2,1
7266,8023,-2,1,-2,0,-3,-1,-2,-2
7267,8023,1,-1,0,-1,-4,1,2,0
7288,8045,-4,-1,1,1,-12,-1,0,-3
7288,8045,-1,0,-1,0,0,-1,0,-2
7289,8046,1,-1,-4,0,-2,-4,-2,-1
7289,8046,-1,-2,0,-1,-4,-2,0,-2
7311,8068,-1,1,-1,-2,-5,0,0,1
7311,8068,-4,-2,-1,0,-7,1,-1,-1
7311,8068,-2,-2,-1,0,-8,-1,1,0
7311,8068,-2,0,0,-1,-6,1,-3,0
7326,8083,1,0,-3,0,4,-2,1,1
7326,8083,1,1,0,1,-6,0,-1,0
7326,8083,3,0,1,-1,4,-1,1,-1
7326,8083,1,0,-2,-3,3,1,0,-2
7348,8105,0,-1,1,-1,3,1,1,-1
7348,8105,0,0,-1,-1,6,-2,1,1
7349,8105,-3,0,-1,1,1,-3,-2,-1
7349,8105,-1,-2,-1,-1,-2,-1,-1,-1
7362,8119,-1,-1,-1,-2,2,0,-2,-4
7362,8119,-1,0,-2,0,5,0,-1,-2
7370,8127,1,-1,-1,-1,-2,0,0,1
7370,8127,0,1,-1,-1,5,0,-2,-1
7386,8142,0,0,0,1,-2,1,-1,3
7386,8142,-1,1,1,0,-1,1,-1,1
7386,8143,0,0,0,2,8,-3,1,2
7386,8143,0,0,-2,1,2,0,-1,4
7408,8165,0,0,-2,0,10,0,0,2
7408,8165,2,-3,0,0,7,0,0,3
7409,8165,0,0,-1,-1,-3,0,1,0
7409,8165,-2,0,1,-1,3,-1,-1,0
7422,8179,-2,1,-1,0,11,0,0,-1
7422,8179,-2,-2,0,-1,-4,-2,-1,-2
7430,8187,0,-2,0,1,3,2,0,-5
7430,8187,3,-1,1,-1,3,-1,1,-2
7446,8202,-1,1,-1,1,-2,0,0,-2
7446,8202,0,1,-1,-2,0,-1,-2,-1
7446,8203,-2,0,0,-2,1,-2,1,-1
7446,8203,-1,2,0,-3,-3,1,0,-1
7469,8226,-2,-1,0,-1,-8,0,2,0
7469,8226,0,0,0,1,0,0,0,3
7470,8226,-4,-1,1,-2,-9,-2,-1,-1
7470,8226,-2,-1,-3,0,7,0,-3,-3
7482,8239,1,1,0,0,-5,1,2,-1
7482,8239,1,-1,-1,-1,0,-1,1,-1
7490,8247,2,-2,-1,0,1,-1,-1,1
7490,8247,-1,0,0,0,5,-1,-2,-3
7506,8263,1,0,1,-1,1,-1,-1,1
7506,8263,1,-2,-1,0,3,1,-2,0
7506,8263,0,0,0,2,-3,0,2,1
7506,8263,0,-2,-1,-1,5,-1,-1,1
7528,8285,1,1,-1,-1,-4,1,-2,-2
7528,8285,0,1,0,0,-1,0,2,0
7530,8286,0,-1,0,0,-4,-4,-2,2
7530,8286,-2,-2,-1,-1,0,0,1,0
7542,8298,-2,-1,-1,0,1,0,0,0
7542,8298,-3,-2,-2,0,1,2,0,0
7558,8315,0,-2,-1,-1,-1,0,0,-3
7558,8315,0,1,-1,1,9,-1,0,-2
7565,8322,-1,-1,0,1,-4,-2,-1,2
7565,8322,2,0,-1,0,5,-2,-2,-1
7572,8329,0,0,1,1,6,-1,-3,5
7572,8329,1,1,-1,2,1,1,1,0
7596,8352,0,1,-1,-3,5,-1,0,-1
7596,8352,1,-2,-1,-1,3,0,1,-2
7597,8354,4,1,0,-3,-3,1,0,-5
7597,8354,1,0,0,0,6,-1,-1,-1
7610,8367,-1,-1,-2,0,0,0,1,0
7610,8367,-2,0,0,0,10,1,2,-1
7618,8374,-1,-2,-2,-2,3,-1,1,-1
7618,8374,-1,0,-1,-1,9,1,0,0
7625,8382,1,0,-1,0,5,3,-1,-1
7625,8382,-1,0,-1,0,2,-1,0,-1
7632,8388,-4,1,-1,-2,0,-1,-1,-1
7632,8388,-3,0,0,-1,1,-1,0,0
7648,8404,-2,0,-2,0,-6,-2,-2,0
7648,8404,-1,1,-1,-3,-5,1,-2,0
7650,8407,-1,-1,0,0,1,0,-2,0
7650,8407,-1,0,-3,-3,-7,1,0,1
7671,8428,0,0,-2,-1,-11,-1,-1,-2
7671,8428,3,0,-1,-1,2,1,2,-1
7672,8429,-2,-2,0,1,-6,-1,0,-3
7672,8429,-1,-2,-1,1,-3,0,0,0
7685,8441,0,1,0,0,-3,-1,0,0
7685,8441,0,-2,0,-1,-3,-2,-2,-3
7693,8450,0,-1,0,0,-2,-1,-2,-1
7693,8450,1,0,-1,-2,3,1,-1,1
7708,8465,-2,-1,0,-1,-7,1,-1,2
7708,8465,-1,-1,0,-1,-3,-1,0,2
7710,8467,0,-3,-2,0,2,-1,0,0
7710,8467,0,0,-1,1,-1,-3,1,-2
7731,8487,3,1,-2,0,6,-1,-2,1
7731,8487,1,1,0,-1,6,-1,-1,1
7732,8488,0,-1,-2,0,-6,-1,0,-1
7732,8488,-1,1,1,-1,-4,0,-1,-3
7745,8501,-1,-1,1,0,8,2,-2,-1
7745,8501,-3,0,-3,0,-2,2,0,3
7752,8509,-3,-1,0,-2,-1,0,0,1
7752,8509,-1,-1,-1,1,3,0,-3,3
7768,8525,1,-1,-1,1,3,0,0,-1
7768,8525,1,-1,-1,-1,0,-1,-1,-5
7770,8526,1,1,-1,0,6,-1,-2,-4
7770,8526,-3,-2,1,-3,3,-1,0,0
7790,8546,-3,-2,1,0,-12,0,1,-1
7790,8546,-1,-1,-2,2,1,-1,1,0
7798,8555,-1,-3,1,0,-3,-1,0,1
7798,8555,0,1,-2,-1,3,1,0,-3
7813,8569,0,1,-1,0,-5,-3,-1,-1
7813,8569,1,-1,-1,-1,1,0,-1,2
7815,8572,1,-1,-1,0,-7,-1,0,-1
7815,8572,-1,0,-1,0,-6,-2,0,0
7828,8585,0,-1,1,-1,-8,-1,0,-2
7828,8585,-2,2,0,-1,-7,1,-1,-3
7830,8586,2,-1,0,-2,-4,0,0,0
7830,8586,0,-1,0,2,5,0,-3,-2
7851,8607,-1,1,-1,-1,-6,-2,0,-1
7851,8607,-3,-3,1,0,-1,-2,-2,0
7852,8609,-1,0,0,-1,4,0,-2,2
7852,8609,0,0,-3,0,-1,0,-2,4
7865,8622,-1,-2,-3,0,5,0,-2,1
7865,8622,-1,-1,-1,-2,1,-2,0,0
7872,8629,-1,-2,0,0,-3,-2,2,-1
7872,8629,0,-2,0,-1,2,1,1,-2
7888,8645,0,-1,-2,-2,0,-2,0,-3
7888,8645,0,1,-1,0,0,1,-1,-4
7890,8647,-1,0,-2,1,2,-1,0,0
7890,8647,-1,-1,0,0,4,-1,2,-1
7911,8667,-1,0,-1,0,-8,-1,1,1
7911,8667,0,0,-1,-2,3,-2,-1,0
7912,8668,1,1,0,-1,1,1,-2,-3
7912,8668,0,-2,0,0,3,0,1,0
7926,8682,2,2,0,-1,-5,-2,-3,-2
7926,8682,1,-1,-2,1,0,1,-2,0
7932,8689,-3,-2,-1,1,0,-2,-1,2
7932,8689,1,0,-2,-2,1,2,2,1
7956,8712,1,-2,1,-1,0,-1,0,0
7956,8712,2,0,0,0,-2,0,0,-1
7957,8714,0,-2,-1,-3,-1,2,1,0
7957,8714,-1,1,-2,1,1,1,-3,-3
7971,8728,0,-2,-2,1,-4,1,1,-1
7971,8728,-1,0,2,-1,-6,1,1,-1
7972,8729,1,-1,1,-1,2,-2,-1,-1
7972,8729,-1,1,-1,-2,1,0,1,-1
7985,8742,-1,2,-1,-1,3,1,-1,-3
7985,8742,-2,2,-1,2,0,-1,-2,0
7992,8749,-1,0,-3,-2,1,-1,1,0
7992,8749,3,-1,0,-1,7,0,-1,1
8008,8765,-2,-2,1,0,-5,-2,-1,1
8008,8765,0,-1,-1,-1,0,0,0,3
8010,8766,0,1,2,1,-1,-1,1,2
8010,8766,0,0,-1,-1,-8,-3,-1,-2
8031,8788,-3,-1,-2,1,-2,0,0,-4
8031,8788,0,-2,-1,-1,0,-2,0,-2
8033,8789,-1,0,1,-2,-9,-1,-3,-1
8033,8789,-4,1,0,0,-4,0,0,0
8045,8801,-2,0,-1,3,-5,0,1,0
8045,8801,-1,-1,0,-3,-13,1,2,-2
8059,8816,1,-3,-2,1,-6,-1,2,-2
8059,8816,1,1,0,-1,1,1,-1,-2
8068,8825,2,0,-1,-1,-15,-2,-1,-1
8068,8825,0,-1,-2,0,-1,-1,-2,0
8070,8826,1,-1,-2,-3,-1,-1,1,0
8070,8826,0,0,-2,-3,-6,0,-1,1
8091,8848,1,-2,1,-2,-7,-1,1,3
8091,8848,1,2,-3,0,-7,-1,1,-1
8093,8849,-4,-2,1,0,-3,0,-1,0
8093,8849,-3,0,0,2,-3,0,1,-1
8104,8861,0,-1,0,-2,1,2,1,0
8104,8861,0,-1,-1,1,0,-1,2,-1
8121,8878,1,0,1,0,2,1,-1,-1
8121,8878,3,1,0,2,3,-1,-1,-1
8128,8885,-2,-1,-1,0,-1,-3,-2,-1
8128,8885,-2,-1,0,-1,2,1,-1,-3
8130,8887,-1,0,-1,-1,7,-1,-1,-1
8130,8887,1,2,-1,-2,0,-1,1,4
8151,8907,1,2,-1,1,-6,-1,-2,1
8151,8907,-1,0,0,1,8,1,-1,2
8152,8909,-1,0,-1,0,3,-1,0,-1
8152,8909,-1,0,0,0,2,0,0,-4
8173,8930,1,0,0,0,1,2,0,-1
8173,8930,-2,-1,-1,0,2,-1,0,-2
8175,8931,0,-2,-2,1,-2,0,1,-2
8175,8931,1,-1,0,2,2,-1,2,2
8188,8945,0,-1,0,-1,10,1,0,2
8188,8945,0,0,1,0,-5,0,-2,2
8190,8946,1,-2,1,-1,8,-2,-2,1
8190,8946,1,-2,-2,0,5,1,-2,2
8211,8968,-2,-1,1,-1,0,1,0,1
8211,8968,0,0,0,-1,7,1,1,-1
8213,8969,2,1,1,0,0,0,1,-4
8213,8969,1,1,0,-1,-1,0,-3,-4
8224,8981,1,0,-1,2,-1,-2,1,-1
8224,8981,0,0,0,-1,-2,-2,-1,-4
8233,8990,-3,1,-2,-1,-6,0,0,-3
8233,8990,-1,0,0,1,4,2,-4,-3
8248,9005,0,1,0,-2,8,-1,-1,-1
8248,9005,-3,-2,-1,-2,-3,-2,-1,0
8250,9007,-1,-1,-1,0,0,-2,1,3
8250,9007,-2,-2,-2,-2,3,0,-1,1
8271,9028,-1,-1,0,-1,-3,-1,2,1
8271,9028,1,2,0,1,3,0,0,2
8278,9035,2,-1,0,0,-2,2,-2,1
8278,9035,-2,0,0,1,-3,0,1,0
8284,9041,1,0,-1,-1,-9,1,0,0
8284,9041,0,0,-1,-2,0,-2,-2,-1
8293,9050,-1,-1,-1,-1,-2,1,-2,1
8293,9050,-2,0,0,0,4,0,1,0
8309,9065,1,-1,0,2,11,1,1,0
8309,9065,-1,1,0,-2,-3,0,1,0
8310,9067,-2,0,0,0,13,-1,-1,1
8310,9067,-3,-2,-1,-2,3,1,0,-2
8331,9087,-3,-1,0,0,-3,0,0,0
8331,9087,-2,0,-1,0,8,1,0,-1
8337,9094,2,0,0,1,3,1,0,-2
8337,9094,2,-1,-1,0,1,-1,0,-1
8344,9101,2,-1,-1,-2,-2,-2,-3,1
8344,9101,1,-2,2,-1,2,-2,-1,2
8353,9110,0,-2,0,1,2,-3,3,2
8353,9110,-2,0,0,-2,4,-1,0,1
8368,9125,-4,0,-1,1,1,0,-2,-2
8368,9125,1,1,-1,0,-2,0,-1,1
8370,9126,1,-1,0,0,11,-2,1,-1
8370,9126,0,0,-1,1,-5,-1,2,-1
8390,9147,-2,-1,0,-3,-1,-1,2,2
8390,9147,1,2,-1,0,-1,-1,-2,0
8398,9155,0,0,1,-1,-5,-1,0,-3
8398,9155,1,1,-2,0,-6,1,0,-3
8404,9160,-1,1,2,0,-7,0,-2,0
8404,9160,0,-3,-1,0,-11,0,0,-1
8413,9169,0,-1,-3,-1,-11,-1,-1,1
8413,9169,0,0,1,-1,-4,0,-1,1
8428,9185,-2,-2,-1,1,-7,-1,-3,2
8428,9185,0,-2,0,-1,-5,-1,-1,-2
8430,9187,-1,0,-3,-2,-4,1,-1,-2
8430,9187,-2,0,-1,-2,-9,1,-1,2
8451,9208,1,0,-1,0,-10,0,0,1
8451,9208,0,-2,0,1,-9,2,0,1
8452,9209,-2,0,-1,1,-4,-1,1,-2
8452,9209,0,-1,1,1,-2,-3,-1,0
8464,9221,1,-1,-1,-2,-6,-2,-1,-1
8464,9221,-2,0,0,-2,0,-1,0,0
8481,9238,0,-1,0,-1,-6,1,0,-3
8481,9238,-2,-1,-1,1,-2,-2,-3,2
8487,9243,1,-1,0,0,0,-1,0,2
8487,9243,-1,0,-1,1,-1,-1,-2,1
8496,9252,-1,-1,0,1,5,1,-1,-1
8496,9252,1,2,-1,-1,1,-2,0,-3
8511,9267,-1,0,-2,0,-2,-1,1,-5
8511,9267,-1,1,0,-3,1,0,1,-1
8512,9269,2,-3,1,0,5,0,-1,-1
8512,9269,0,0,0,0,5,0,0,-1
8524,9281,0,0,0,-2,1,-1,0,0
8524,9281,1,-2,-1,-1,-1,-2,-2,0
8533,9290,0,-1,-1,-1,4,-2,-1,2
8533,9290,0,-2,0,-1,5,-1,0,-1
8548,9304,-2,0,2,-1,-2,0,0,-2
8548,9304,-2,0,0,2,-1,0,1,-1
8550,9306,0,0,-1,1,4,0,-1,-2
8550,9306,0,1,1,-1,9,-1,1,0
8571,9328,0,0,0,-3,-1,-2,0,0
8571,9328,0,-1,2,0,5,0,-1,-1
8572,9329,-3,-1,-1,-3,8,-1,-1,-2
8572,9329,-2,2,-1,0,1,1,3,-2
8593,9350,0,-2,0,1,-4,-1,0,-2
8593,9350,2,0,0,2,-1,1,0,2
8595,9351,0,-2,-1,-1,1,1,-2,3
8595,9351,0,0,1,-1,-1,2,-2,2
8608,9365,1,2,-1,-1,6,1,-1,1
8608,9365,-2,-1,-2,1,-2,-1,0,-2
8610,9366,-2,-1,1,-1,5,-1,-1,-1
8610,9366,-2,1,-1,1,1,0,0,-1
8631,9388,0,-1,-1,-1,-4,0,0,0
8631,9388,0,1,0,-1,-1,1,-3,4
8632,9389,0,-1,-1,0,3,0,3,1
8632,9389,-2,0,1,1,-2,0,0,0
8653,9410,0,1,-1,0,0,-1,1,-2
8653,9410,0,1,-1,0,0,-1,1,0
8655,9411,1,0,-1,-1,0,-1,-1,0
8655,9411,1,1,-1,0,-3,1,0,2
8668,9424,-2,-1,-1,2,8,0,-1,-2
8668,9424,-3,-3,-1,0,0,-2,-2,-2
8791,9431,2,-1,-1,-2,0,0,-2,-2
8791,9431,0,2,-1,0,3,0,1,0
8791,9447,1,1,0,-2,-6,-1,-2,0
8792,9447,-1,0,1,-1,0,-2,0,1
8792,9455,-1,2,-1,1,6,0,-2,0
8792,9455,-2,-2,-1,-1,1,0,-1,1
8792,9470,-3,-1,-1,-1,-2,0,-3,0
8792,9470,-2,-1,0,-1,2,-1,1,0
8792,9471,-1,0,0,0,2,1,1,-2
8792,9471,2,0,2,0,2,2,-3,-1
8792,9492,1,1,2,0,18,-1,1,1
8792,9492,1,1,-1,0,1,0,0,0
8792,9494,0,1,-1,-2,1,1,-1,3
8792,9494,3,-1,-2,-2,-3,1,-1,1
8792,9507,0,-1,1,1,-2,0,0,2
8792,9507,-2,1,-1,-1,0,0,0,0
8792,9513,-1,0,1,0,1,-1,1,-2
8792,9513,0,-1,-2,-1,0,-1,-2,0
8792,9530,0,-2,-2,1,-5,-2,0,0
8792,9530,-1,0,-1,-2,-3,-2,0,-1
8792,9532,-3,1,1,0,-9,-2,0,-2
8792,9532,-2,0,0,-1,-7,1,1,-4
8792,9545,-1,-2,0,1,-1,-1,-1,-1
8792,9545,-1,-2,0,0,-6,-2,-1,-1
8794,9550,-1,-1,-1,-1,-5,-2,0,-1
8794,9550,0,2,-1,-1,-8,-1,-1,1
8811,9567,-2,-1,1,-3,-7,0,2,2
8811,9567,1,-2,0,0,-10,1,-1,3
8812,9568,1,0,0,-2,-6,-3,-1,2
8812,9568,-1,-1,-2,1,-7,0,-1,-1
8833,9590,1,0,-3,0,-8,0,-2,-6
8833,9590,-1,-1,-1,-2,-5,-1,-1,-4
8835,9591,2,1,0,0,-4,1,0,-3
8835,9591,1,0,-1,0,-1,-1,2,-1
8848,9604,-1,0,1,-2,-8,-2,0,-1
8848,9604,0,-1,-1,1,-3,-2,-3,-2
8854,9611,0,-3,0,-1,-1,-1,0,-1
8854,9611,-3,0,0,-1,-2,-1,-2,0
8871,9627,0,0,-1,1,-4,0,0,2
8871,9627,0,-2,0,-1,0,-2,3,-1
8872,9629,-1,-1,1,-1,1,-1,-2,1
8872,9629,0,-1,-1,0,-3,-1,-1,1
8893,9649,0,-4,-1,0,-2,1,-3,-1
8893,9649,-1,1,0,0,0,-1,-1,-2
8895,9651,0,-1,-3,0,3,-1,1,-2
8895,9651,-1,0,0,-1,0,-2,1,0
8908,9665,-1,1,1,-1,-3,-1,0,0
8908,9665,0,0,-1,0,0,0,-1,0
8922,9679,0,1,0,2,6,3,-1,-2
8922,9679,0,0,3,0,8,0,-2,0
8931,9687,1,-1,1,0,-1,-3,0,-1
8931,9687,2,-3,0,0,1,0,-1,-2
8932,9689,0,-1,-1,0,3,1,1,2
8932,9689,1,-2,0,-1,-3,-1,0,2
8953,9710,-1,-1,0,-1,0,1,-2,0
8953,9710,-1,3,0,0,3,2,2,3
8955,9711,-1,-2,-1,0,-2,-1,-1,0
8955,9711,1,1,0,-1,2,-1,0,0
8976,9732,1,-2,-1,-1,0,0,1,-2
8976,9732,-1,-2,1,1,-7,-2,1,0
8977,9733,0,-2,1,-1,2,2,-1,0
8977,9733,0,1,-2,1,-1,1,-1,3
8991,9747,0,1,-3,-2,-7,-2,-2,0
8991,9747,-2,-1,-1,-2,1,-1,-3,-3
8992,9749,-2,-1,-1,-1,1,-3,2,-2
8992,9749,0,0,0,1,-6,-1,0,-3
9013,9770,0,0,-1,2,2,0,-1,-1
9013,9770,-1,1,0,0,-4,1,0,1
9015,9772,0,0,0,-1,-1,0,0,2
9015,9772,0,-3,0,-2,1,1,1,1
9027,9784,0,1,0,1,-3,0,1,0
9027,9784,-3,-1,-1,0,-3,-1,0,-1
9034,9791,-2,-1,-1,-1,2,1,-2,-3
9034,9791,1,1,-1,-1,-1,-1,-1,-2
9050,9807,-2,0,0,-2,-4,-2,-1,2
9050,9807,-1,-1,-2,-2,-2,0,-2,1
9064,9821,-2,-1,0,0,7,1,-3,1
9064,9821,-1,-1,-1,-1,-5,4,0,-2
9073,9830,-1,-1,-2,-1,0,-1,0,-4
9073,9830,1,2,-1,1,2,-1,2,-2
9075,9831,0,1,-2,0,-1,0,-1,0
9075,9831,-3,-1,-1,-1,-3,-1,2,0
9087,9843,1,-1,1,0,2,0,1,-1
9087,9843,1,-3,-1,-1,-2,-1,1,0
9096,9853,-3,1,0,-1,4,0,-1,-2
9096,9853,-1,2,-1,-1,6,0,-2,1
9110,9867,-1,0,-2,-3,-3,1,-2,0
9111,9867,-1,-2,2,-1,3,-1,-1,0
9112,9868,2,1,0,-1,0,-2,-2,0
9112,9868,-2,-2,-1,1,9,-2,0,-2
9133,9890,-1,-1,0,-1,7,0,1,1
9133,9890,2,3,2,0,6,0,-3,1
9135,9891,1,0,-1,0,7,0,1,2
9135,9891,0,1,1,0,0,0,-1,-3
9147,9904,-3,-1,-1,2,-5,2,0,0
9147,9904,-2,1,-1,0,-3,-1,1,-3
9156,9913,1,0,-1,-1,-6,-1,0,-1
9156,9913,1,0,-1,0,-5,-2,-1,1
9171,9928,-1,-1,1,-3,1,2,-1,2
9171,9928,1,-3,0,0,-7,1,0,4
9172,9929,-1,1,-1,1,-2,1,-2,-3
9172,9929,-1,0,-1,0,-4,-2,1,0
9193,9950,-2,1,-1,-1,-14,-4,1,-3
9193,9950,0,-1,2,-1,-2,-1,0,-1
9195,9951,2,-2,-2,-2,0,0,0,1
9195,9951,1,-2,0,1,-11,2,0,1
9207,9964,0,1,0,2,-5,0,-1,-2
9207,9964,0,1,-1,-2,-6,-2,-1,1
9216,9972,-1,-3,-1,0,-2,0,1,1
9216,9972,1,0,-1,0,-5,-1,-1,0
9231,9987,3,-1,0,-2,6,-1,-2,1
9231,9987,1,-1,0,0,0,-2,-2,-3
9232,9989,0,-2,1,-1,7,0,0,0
9232,9989,-2,-1,0,0,5,1,0,0
9254,10010,-3,-1,-2,0,-5,-1,2,-1
9254,10010,-4,-1,-1,1,-5,-2,0,0
9255,10011,-1,-2,1,-1,3,0,0,1
9255,10011,2,0,0,0,-3,-1,2,1
9267,10024,0,0,2,0,-2,1,1,0
9267,10024,-1,0,-2,1,-1,2,1,-4
9276,10033,1,0,1,-1,-2,1,-2,0
9276,10033,-1,1,0,-2,1,-2,-1,-2
9291,10047,-1,-2,-1,1,9,2,-1,1
9291,10047,1,0,-1,-1,1,-1,-1,4
9292,10049,-1,0,0,-2,8,0,2,0
9292,10049,-1,0,-1,-2,0,1,-1,0
9313,10070,2,-1,-1,1,-7,-2,-2,-2
9313,10070,-2,0,-3,-1,3,-1,-1,1
9315,10071,0,-2,-2,0,-1,-3,0,-2
9315,10071,0,-1,0,1,-6,-2,-2,0
9327,10083,-1,1,0,-1,-4,-2,0,-1
9327,10083,2,-3,1,1,-4,-1,0,-4
9336,10093,0,0,0,1,-1,0,0,-3
9336,10093,1,0,-1,1,1,0,-1,0
9351,10107,1,-1,-1,0,-5,-1,-1,0
9351,10107,1,0,0,0,-2,-2,1,1
9352,10109,0,1,0,-1,6,0,0,1
9352,10109,2,-1,-1,-2,-7,1,1,0
9373,10130,-3,-1,1,0,1,-1,-1,0
9373,10130,-3,0,0,-2,-3,1,-2,3
9375,10131,-1,1,1,0,-4,0,0,1
9375,10131,-1,0,-1,0,2,-1,1,0
9387,10144,1,-2,0,0,-2,0,2,0
9387,10144,-1,-1,1,0,4,1,-1,-5
9396,10152,-1,0,-1,0,7,-1,-2,-4
9396,10152,-2,-2,1,-1,-1,-1,0,-2
9411,10167,1,0,-2,0,3,-2,-1,0
9411,10167,-2,-1,-2,-2,4,1,1,0
9412,10168,-2,1,0,0,3,1,1,-1
9412,10168,-2,1,-1,-1,-1,-1,-2,0
9433,10190,-1,0,-2,-1,2,-1,-1,2
9433,10190,-1,1,0,-1,-4,-2,-2,3
9435,10191,-1,0,-1,-1,-1,0,0,2
9435,10191,0,0,-2,0,0,-1,0,2
9447,10204,-2,0,-2,-2,-5,0,-1,2
9447,10204,0,-1,-1,0,2,-1,2,-3
9456,10212,0,0,-1,-2,5,1,-2,-1
9456,10212,-1,1,-1,-1,6,-1,0,-2
9471,10228,2,-1,-1,-2,-2,0,1,-3
9471,10228,1,0,1,2,8,0,1,-3
9477,10234,-1,-2,-1,0,5,-1,0,-3
9477,10234,-2,-2,-1,2,10,2,-2,-2
9493,10250,-2,0,-1,1,-2,1,-2,1
9493,10250,1,-1,-1,-1,4,-1,1,2
9495,10251,-2,-2,0,-2,-2,-1,0,4
9495,10251,0,-1,1,0,0,2,2,3
9516,10272,0,0,-1,-2,-4,0,0,-2
9516,10272,1,-1,-1,1,0,-3,-4,-4
9517,10274,0,3,-1,-3,4,1,-2,1
9517,10274,0,0,-1,-1,-1,0,-1,-1
9539,10295,0,0,2,1,4,2,1,-2
9539,10295,-1,-1,-1,1,-7,-1,1,1
9540,10297,0,0,-1,1,0,1,-3,-1
9540,10297,-1,-1,-1,1,-2,0,-1,-1
9553,10310,-2,-1,0,-1,-10,0,0,1
9553,10310,0,-1,-1,-1,-5,-1,-2,0
9555,10311,-1,-3,-2,-1,-6,0,0,-1
9555,10311,-2,-1,-2,-1,-9,2,0,-1
9576,10333,2,-2,0,-1,-8,-3,-2,0
9576,10333,0,0,-1,0,-3,-1,0,1
9577,10334,1,0,-1,1,-12,-1,2,-1
9577,10334,2,-1,-1,-1,-9,1,0,1
9591,10348,1,0,1,1,7,2,-2,-3
9591,10348,-1,-1,-1,-1,-9,1,-1,-2
9593,10349,-2,0,1,0,0,-1,2,-2
9593,10349,-1,-1,0,-1,-3,-1,2,-1
9621,10378,-1,1,-1,0,-7,-1,0,-2
9621,10378,1,0,1,-4,-2,0,-1,0
9622,10379,0,0,-1,-1,7,0,-1,-1
9622,10379,-1,1,0,1,-1,-2,-2,0
9636,10393,-2,-1,-1,0,-7,-2,1,2
9636,10393,-1,-2,0,0,9,1,1,-2
9637,10394,-2,-2,-2,0,3,0,-2,-2
9637,10394,1,-2,0,0,-2,0,-2,0
9650,10407,-1,-2,-1,-1,19,2,-4,-1
9650,10407,-1,-1,-1,-1,-3,-2,1,-1
9657,10414,-1,1,0,0,0,1,1,-2
9657,10414,1,-1,-1,-1,2,0,-2,-2
9673,10430,0,1,-3,1,-5,-2,0,1
9673,10430,-1,0,0,0,0,0,1,1
9675,10431,0,0,0,2,3,0,0,3
9675,10431,-1,-1,0,0,-3,-2,0,0
9696,10452,0,0,1,0,-8,-2,1,2
9696,10452,1,-1,-1,0,2,0,-1,2
9697,10453,-2,-1,-2,0,1,-1,0,0
9697,10453,0,0,-1,0,-1,0,0,0
9710,10466,-2,0,0,-1,6,-2,0,-3
9710,10466,-1,-2,2,0,-2,0,-1,-2
9724,10481,0,0,1,0,1,-1,1,-2
9724,10481,1,0,0,0,-3,-1,-2,0
9741,10497,-1,1,-1,2,-6,0,-2,2
9741,10497,0,-1,-1,-2,-4,-2,-3,1
9742,10499,1,1,-1,-1,0,4,-1,2
9742,10499,0,-1,0,-1,1,0,0,0
9756,10513,-1,-1,0,0,-5,1,-1,1
9756,10513,0,-1,0,1,-2,0,1,1
9757,10514,1,2,0,-1,2,0,0,1
9757,10514,-2,0,-1,0,-4,0,1,-2
9778,10535,-2,0,0,0,9,1,3,-3
9778,10535,-1,-1,0,0,2,-1,2,-4
9780,10536,-1,0,0,0,-2,0,0,0
9780,10536,-2,-1,-2,-1,4,-1,-1,-1
9793,10550,-1,1,-1,0,-8,-2,1,0
9793,10550,1,-1,0,0,4,-2,1,3
9795,10551,1,-2,1,0,8,-2,0,0
9795,10551,0,0,0,-2,-1,-2,0,0
9816,10572,0,-3,-2,-1,-5,0,0,-2
9816,10572,-2,0,0,0,7,2,0,-1
9817,10573,-1,0,-2,-1,2,0,-2,-2
9817,10573,1,-1,1,0,5,1,-2,-1
9830,10587,1,0,1,-2,-3,-1,-1,-2
9830,10587,2,0,-1,-2,1,0,-1,-1
9844,10601,0,-1,-2,-2,3,1,0,-1
9844,10601,-1,0,-2,1,3,0,2,2
9853,10610,-2,-1,-2,2,-1,0,2,1
9853,10610,0,0,-1,-1,-3,-1,-1,-2
9855,10611,-2,0,0,0,7,0,0,0
9855,10611,1,2,0,0,0,-1,-3,-2
9876,10633,-1,-1,-1,-1,1,0,-1,0
9876,10633,0,1,0,-1,2,0,1,0
9877,10634,-2,-2,0,1,-3,-1,0,1
9877,10634,0,-1,0,0,1,1,2,-2
9890,10646,0,0,1,-1,2,-1,-1,-1
9890,10646,1,-1,-1,-3,1,-1,-1,1
9897,10654,2,0,0,0,1,-1,-1,1
9897,10654,1,1,-2,0,-4,1,0,0
9913,10670,1,-3,-2,-1,-8,-3,-2,-1
9913,10670,-3,-2,-1,1,-5,-1,-1,-4
9915,10671,-1,1,-1,0,-2,-2,-1,2
9915,10671,-3,-1,-1,-2,-13,0,1,3
9936,10692,0,1,0,1,-8,0,1,0
9936,10692,0,0,-2,0,-5,-1,-1,-2
9937,10693,1,1,-1,1,-7,0,1,-2
9937,10693,0,1,0,-1,0,-1,-2,1
9950,10706,2,-3,-1,-2,-8,-2,-2,1
9950,10706,-1,-1,0,0,-6,-2,-3,1
9957,10713,-1,0,-1,-2,-3,0,-1,-2
9957,10713,0,-1,-2,-1,-5,-1,0,-1
9973,10730,-4,0,0,1,-4,-2,-1,2
9973,10730,0,-1,-1,-1,-7,3,1,-1
9975,10732,1,0,0,-2,-2,-1,0,1
9975,10732,1,0,2,0,-5,-1,-1,-2
9996,10753,2,1,1,-2,-7,-1,1,0
9996,10753,-2,0,-1,1,0,0,1,-1
9997,10754,-2,-1,-1,0,-1,0,-1,0
9997,10754,-2,-1,0,1,2,0,1,0
10009,10766,-1,1,2,1,-1,0,-1,-1
10009,10766,1,1,-1,-1,-3,-1,-2,-1
10018,10774,-1,-1,0,-2,-2,1,-2,-3
10018,10774,-1,-2,-1,0,3,-2,-1,-1
10033,10790,1,-1,0,2,4,-1,2,0
10033,10790,2,-1,0,1,3,0,0,0
10035,10791,0,1,-1,0,6,1,1,0
10035,10791,1,-1,-3,-1,3,0,-1,-1
10064,10820,-1,-1,0,-1,-6,0,-1,1
10064,10820,-1,0,0,0,10,1,-1,0
10065,10822,1,2,0,-2,5,-1,-1,-1
10065,10822,-1,-1,1,0,-4,-1,-1,-3
10069,10826,-2,0,-2,0,1,-1,-1,-4
10069,10826,-1,-1,-1,0,4,-3,0,-3
10078,10835,0,0,-2,2,-3,0,0,0
10078,10835,-1,0,0,1,3,-3,-1,4
10093,10850,2,-2,0,-3,2,1,-1,2
10093,10850,0,-1,-2,0,2,1,0,2
10095,10851,-2,2,0,-2,1,-2,1,0
10095,10851,-2,0,-2,0,-2,0,-2,1
10116,10873,3,-1,-1,0,-5,-1,0,-4
10116,10873,0,1,0,-1,11,0,-1,-2
10117,10874,3,0,-1,-1,3,1,0,0
10117,10874,0,0,0,0,-3,-1,0,2
10129,10885,1,-1,0,-1,-2,2,-3,3
10129,10885,-3,1,0,0,-2,0,-1,2
10138,10895,-1,-4,0,1,2,-1,0,-2
10138,10895,-2,0,-2,-2,1,-1,1,-3
10153,10910,-1,2,-2,0,6,-1,0,-2
10153,10910,0,-1,-1,-2,-6,0,2,1
10155,10911,-2,1,1,-1,-1,2,-1,-1
10155,10911,0,-3,0,0,2,1,1,-1
10176,10932,-4,0,0,1,-1,-3,0,-1
10176,10932,0,1,-2,0,4,1,0,-1
10177,10933,2,-1,0,1,7,0,-1,0
10177,10933,2,1,0,0,-5,-1,0,-3
10189,10946,1,0,1,0,-4,-3,1,2
10189,10946,0,-1,-1,-1,2,-3,-1,1
10198,10955,0,-1,-2,-1,2,1,-1,-1
10198,10955,-1,0,-1,0,6,0,0,0
10213,10970,3,-1,2,0,8,2,2,1
10213,10970,-1,-1,1,0,0,3,0,0
10215,10971,-2,0,0,-1,8,-1,2,1
10215,10971,0,1,-1,-1,4,-1,0,1
10236,10993,-2,-3,-2,-2,-7,-1,0,-1
10236,10993,0,-1,-2,-1,4,-1,-1,0
10237,10994,-2,0,-2,-1,2,1,-1,0
10237,10994,-2,-1,1,0,-6,0,-2,0
10249,11006,0,1,-1,0,-5,2,1,-3
10249,11006,1,0,-1,0,-1,-1,-1,-3
10258,11015,1,0,0,-1,-5,1,0,0
10258,11015,0,-1,0,0,2,-1,2,0
10273,11029,0,-1,-1,-2,0,-1,-2,3
10273,11029,-2,0,-1,-2,0,3,0,-3
10275,11031,2,0,-1,0,1,0,2,-1
10275,11031,-1,-1,0,-1,-10,-1,-1,2
10296,11053,-2,1,0,2,-14,0,-1,-3
10296,11053,1,-2,1,2,-2,-1,0,-3
10297,11054,0,-1,1,1,-8,-1,-1,-1
10297,11054,-1,-3,-1,-2,-6,1,-1,0
10309,11066,-2,-1,-1,-1,-6,0,0,-1
10309,11066,-1,-2,1,-1,-12,-2,-2,0
10318,11075,1,1,0,0,-6,-1,1,-3
10318,11075,0,-1,-1,-1,-5,-2,-1,-3
10333,11090,1,0,1,0,-1,1,0,-2
10333,11090,1,1,-1,-2,-2,0,0,2
10335,11091,-2,-1,-1,-1,-1,-2,0,1
10335,11091,2,0,-2,0,2,-2,1,-1
10363,11120,0,-3,-1,0,-4,0,3,2
10363,11120,0,1,1,-2,-2,0,2,-1
10365,11122,-3,0,0,1,-4,0,-2,0
10365,11122,-2,1,-2,1,1,0,0,2
10369,11126,-2,-1,-2,0,1,-2,-1,0
10369,11126,0,-1,0,-1,-4,-1,-2,-2
10378,11134,0,-1,-1,0,-3,-2,0,1
10378,11134,-2,1,-3,0,-4,-1,0,-2
10394,11150,-2,-1,-1,-2,-3,-3,-1,-1
10394,11150,0,-2,2,2,9,-1,0,0
10395,11152,-2,0,1,1,4,3,-3,3
10395,11152,0,-2,0,-1,-2,1,0,3
10423,11180,0,-2,0,2,0,0,-1,2
10423,11180,-3,-1,-3,-1,3,-3,0,1
10425,11181,-1,1,-1,-1,9,0,-1,-3
10425,11181,0,0,-2,1,0,-3,1,-3
10438,11195,0,-1,-1,-1,-2,0,-1,-4
10438,11195,2,0,-1,-1,2,-1,-1,-1
10440,11196,1,-1,1,-1,2,1,-1,-1
10440,11196,1,1,1,0,11,2,0,-3
10453,11209,0,-1,-1,-1,5,1,-1,-1
10453,11209,-2,0,-1,1,5,0,2,1
10455,11211,0,1,-1,-1,7,1,3,1
10455,11211,0,-1,2,-2,6,-1,2,-1
10476,11233,-2,-1,0,-1,-3,-3,1,0
10476,11233,-3,-1,1,0,0,0,0,-1
10482,11239,0,0,-2,0,6,0,-3,0
10482,11239,2,1,0,0,3,0,1,-1
10498,11254,1,-2,-1,1,-1,0,0,0
10498,11254,1,2,1,-1,5,1,-1,0
10500,11256,-3,1,-1,1,0,-1,0,0
10500,11256,-3,0,0,0,-2,-1,-1,-3
10513,11270,0,-3,0,0,0,0,1,-2
10513,11270,2,0,0,-1,-4,0,0,0
10515,11272,1,1,-1,0,2,-1,-3,0
10515,11272,1,0,0,1,0,0,0,-1
10536,11292,1,1,0,0,-4,-3,0,2
10536,11292,0,-1,0,-3,6,1,1,0
10537,11294,-1,1,-2,0,4,-7,-2,2
10537,11294,-2,-2,-3,-2,-7,0,-3,-2
10558,11315,-2,0,1,-1,-7,1,0,-5
10558,11315,-3,-1,-2,0,1,-1,-1,-4
10560,11317,-1,0,-1,0,-2,1,1,-4
10560,11317,1,0,-1,1,-2,-1,0,1
10573,11330,0,0,0,1,9,0,-2,0
10573,11330,1,1,0,0,8,3,1,0
10575,11331,1,1,0,-2,1,2,2,3
10575,11331,1,-1,1,2,0,-1,-1,3
10596,11353,1,-3,2,0,-3,-2,-2,4
10596,11353,-2,-1,-1,-1,2,-2,2,2
10598,11355,-1,-1,-3,-1,-1,2,1,1
10598,11355,-1,0,-1,-2,-2,-1,-2,0
10618,11374,0,0,0,-1,-1,-3,0,0
10618,11374,2,0,-1,1,1,0,-1,0
10620,11376,1,-2,2,-1,1,-1,0,-1
10620,11376,-2,0,-1,-1,-1,0,0,0
10633,11389,0,2,1,-1,9,1,1,0
10633,11389,0,0,0,-1,3,0,0,0
10639,11396,-1,1,0,-1,-2,1,-1,0
10639,11396,2,-2,0,-2,-5,0,-4,-2
10656,11412,2,-1,-2,-1,-10,-3,0,-2
10656,11412,1,1,-3,-2,-7,0,0,0
10657,11414,-1,-1,0,-2,-8,0,1,1
10657,11414,-1,-2,0,-1,-4,1,1,1
10678,11434,-3,1,-2,-3,-15,2,-1,1
10678,11434,-2,0,0,-1,-11,0,0,-2
10680,11437,-3,-2,0,0,-12,-4,-1,-1
10680,11437,-2,-3,-1,-1,-4,-2,-3,0
10693,11450,1,-2,0,0,-7,0,-1,-1
10693,11450,1,0,0,-1,-4,0,-3,-2
10699,11456,2,0,-1,0,-6,1,-1,-2
10699,11456,-2,-1,0,-1,-8,-4,0,-2
10716,11472,-2,-1,1,0,-6,-3,-1,-3
10716,11472,0,0,-1,2,-5,-1,-3,-2
10717,11474,2,-1,-2,2,-4,0,-1,-3
10717,11474,-1,-1,-2,-2,-3,2,-1,2
10738,11495,-2,-1,1,0,-4,0,-1,0
10738,11495,-1,2,0,-1,2,-1,1,2
10740,11497,0,-2,0,0,1,1,0,0
10740,11497,4,0,0,1,3,0,2,-2
10752,11509,0,-2,-2,0,-1,1,0,-2
10753,11509,-2,0,0,-2,-2,0,0,-1
10759,11516,-5,0,0,0,0,-2,0,2
10759,11516,-4,-1,-1,-2,-6,1,-1,0
10776,11533,0,0,0,-2,-1,-2,1,0
10776,11533,-1,0,2,1,0,-2,0,-2
10777,11534,0,-2,-1,0,-3,-1,-3,-3
10777,11534,-1,-3,1,-1,2,0,-1,-2
10798,11555,1,-1,-1,-1,-1,-2,0,1
10798,11555,0,-1,-2,-2,2,1,0,1
10800,11556,-3,1,0,0,2,0,-1,-1
10800,11556,1,2,0,-1,1,0,0,-2
10812,11569,0,0,0,-1,1,0,-2,-1
10812,11569,2,-1,-2,0,2,-2,-1,-1
10819,11576,2,-1,-1,-2,7,0,1,-1
10819,11576,-1,-1,0,-1,4,-2,0,0
10836,11593,0,0,-1,-1,-5,1,2,2
10836,11593,-1,-2,-1,0,1,1,1,2
10837,11594,0,1,-1,3,2,-1,1,3
10837,11594,-1,-2,-1,-1,-4,0,-2,1
10858,11615,-1,-2,-1,0,0,-1,1,0
10858,11615,0,1,-1,1,1,0,-1,0
10860,11617,1,-2,-2,0,2,0,-2,1
10860,11617,0,0,-1,0,0,-1,0,1
10873,11629,-1,0,0,0,3,1,1,-1
10873,11629,0,0,-1,0,3,2,0,0
10879,11636,0,-1,1,0,4,-1,1,-1
10879,11636,1,1,0,1,3,-1,-1,-1
10896,11653,-2,-1,0,1,-5,-2,-5,-3
10896,11653,0,0,-1,0,5,1,1,-3
10897,11654,1,2,0,-3,7,1,1,-2
10897,11654,1,0,-2,1,0,0,0,-2
10919,11675,-1,1,-1,0,-1,1,-2,-1
10919,11675,1,-1,-1,0,-1,-3,1,2
10920,11676,2,0,-1,1,-5,-2,-3,-1
10920,11676,0,2,1,-1,-3,0,2,-1
10932,11689,-1,-1,-1,-1,-2,-1,-1,2
10932,11689,-2,-2,-1,1,-6,0,-1,1
10941,11697,-2,0,-1,0,1,-1,1,1
10941,11697,0,1,-2,-1,1,-1,-1,1
10956,11713,0,-1,-1,0,-2,-1,-1,-1
10956,11713,-2,2,0,-2,6,-1,0,1
10957,11714,-3,-3,-1,-1,2,0,0,-1
10957,11714,-3,-2,0,-1,-5,0,-3,-2
10978,11735,-3,-2,-1,0,0,0,0,0
10978,11735,1,0,0,0,6,1,-2,1
10980,11736,1,1,2,0,2,0,-2,-1
10980,11736,-2,-1,-1,-1,0,0,0,-1
10992,11749,-1,0,-1,-1,-5,-1,2,-2
10992,11749,1,1,1,0,-6,0,2,-2
11008,11765,0,-2,-2,-1,2,2,2,0
11008,11765,1,-1,2,-1,0,0,0,-1
11016,11773,-2,0,1,1,-5,-2,0,-2
11016,11773,-1,0,-1,-1,2,0,-3,2
11017,11774,-2,3,0,0,2,-1,-1,-2
11017,11774,0,-2,-2,1,-3,-2,-1,1
11038,11795,1,-2,0,-2,-6,-1,-1,1
11038,11795,1,3,-1,1,3,-1,-2,-3
11040,11796,0,-2,0,-1,-4,-1,0,-1
11040,11796,3,1,0,-2,-6,-3,2,-4
11052,11809,2,0,2,0,1,0,0,-1
11052,11809,-2,-1,0,-1,-7,0,-1,0
11061,11817,-1,0,0,0,-6,2,-4,0
11061,11817,-6,0,-2,0,-5,-1,-1,2
11076,11831,0,0,-1,-1,-4,0,-2,2
11076,11831,2,-1,1,1,-6,-3,0,1
11077,11834,2,0,-1,0,-5,-2,-1,1
11077,11834,2,1,0,-1,-6,1,1,0
11098,11854,1,-1,0,1,-3,-2,2,0
11098,11854,-1,-1,-1,-1,2,-1,0,-1
11100,11857,-1,0,0,2,1,-1,1,-1
11100,11857,-1,-2,0,0,-3,1,-2,-2
11112,11868,-1,-1,-1,-3,-3,0,-2,-2
11112,11868,1,0,1,-2,2,0,1,-4
11121,11878,0,-1,-2,-1,-2,-2,-1,0
11121,11878,2,-1,0,1,5,1,-2,-1
11136,11892,0,-1,1,-1,5,-1,-1,-2
11136,11892,1,0,-1,0,-2,-1,-1,0
11137,11894,-1,0,0,-1,9,-1,0,1
11137,11894,0,0,-1,1,6,2,-1,0
11158,11914,-1,1,0,0,0,0,0,-1
11158,11914,-1,0,-2,-1,5,2,0,-2
11160,11917,1,1,-1,2,4,-1,-1,-2
11160,11917,1,-1,0,2,-3,-1,-2,1
11172,11929,-1,-3,-1,0,1,-1,-1,0
11172,11929,-1,0,1,-2,1,0,0,-1
11181,11938,-2,2,-1,-1,1,2,1,-2
11181,11938,-1,-1,-1,-2,3,-2,1,-1
11196,11952,-1,2,-1,1,0,2,1,-3
11196,11952,-1,-2,-2,0,1,0,-1,1
11197,11954,1,-1,0,-2,3,1,-2,1
11197,11954,0,2,-1,-1,1,-1,0,2
11218,11975,-1,-3,1,-2,-3,-1,0,1
11218,11975,-1,0,0,0,3,1,0,-2
11220,11976,0,1,0,-2,-5,-1,1,-3
11220,11976,-2,-1,-2,0,-2,-2,-3,-3
11232,11988,0,0,1,0,1,1,-1,0
11232,11988,-2,0,-1,-1,-6,0,-1,-2
11241,11997,-1,-3,-1,0,4,0,1,-1
11241,11997,0,1,2,0,1,-1,1,1
11256,12013,1,1,-3,0,-4,-3,0,0
11256,12013,1,1,0,1,-2,1,1,2
11257,12014,1,0,0,-2,-2,0,2,2
11257,12014,0,-1,1,-1,-2,0,0,0
11277,12033,2,0,0,-1,-3,-2,-1,2
11277,12033,1,1,-2,-1,-5,-3,1,-1
11286,12042,1,0,0,0,1,-1,-1,-1
11286,12042,0,-1,-1,-1,-3,-2,-1,-2
11292,12049,0,-1,1,0,-1,1,2,-2
11292,12049,-2,1,0,1,3,3,0,-1
11301,12057,0,0,-2,0,0,-1,0,0
11301,12057,1,0,-1,1,0,-1,1,1
11316,12073,1,1,-2,0,-1,0,0,5
11316,12073,0,0,0,-1,3,0,-1,1
11317,12074,-2,1,1,0,1,0,-2,-1
11317,12074,-2,1,-1,-1,-3,0,-1,-3
11338,12095,-1,0,-2,0,2,-1,-1,-2
11338,12095,-1,0,1,0,0,-1,-2,1
11340,12097,1,0,-1,-1,-3,-3,0,-1
11340,12097,0,-1,-1,-2,0,1,2,-1
11361,12118,0,-2,-1,-2,-2,-2,-1,-2
11361,12118,-1,-1,-1,0,1,1,-3,-1
11362,12119,0,-2,0,0,1,1,1,0
11362,12119,2,-1,0,0,-1,-2,0,4
11376,12132,-1,2,-1,0,-6,-2,-1,0
11376,12132,0,1,-1,-2,4,2,-1,0
11377,12133,3,-2,0,-1,7,1,0,0
11377,12133,1,1,0,0,7,1,-1,-1
11398,12155,-1,1,-1,0,0,0,-2,-2
11398,12155,-1,-1,-1,-1,7,-1,0,-1
11400,12157,-4,-1,-1,-1,7,0,1,0
11400,12157,0,-1,-1,0,-5,-1,-1,1
11421,12177,-1,-1,-1,-2,-2,1,-1,-1
11421,12177,-1,2,0,0,-4,-2,-1,-6
11422,12179,-2,1,0,1,-10,-2,-1,0
11422,12179,0,-2,-1,1,-2,-1,0,1
11436,12193,2,0,-1,1,-5,-1,-1,4
11436,12193,-1,-4,-1,2,-4,-1,-2,1
11437,12194,-3,0,0,-1,-1,1,-1,0
11437,12194,-1,0,0,-1,-4,-1,1,-3
11458,12215,1,-1,0,0,-8,2,0,-4
11458,12215,0,2,0,-2,-3,0,2,-1
11460,12216,1,-3,-1,-1,-3,-2,-2,0
11460,12216,-1,-2,0,-1,-6,0,-2,1
11481,12237,-1,-1,2,2,-2,-1,0,1
11481,12237,0,1,-1,0,-4,-1,0,2
11482,12239,-1,-2,0,-1,-7,-3,-2,1
11482,12239,-1,0,-2,-1,-5,0,-2,-1
11496,12253,-3,-2,0,0,9,-1,-1,0
11496,12253,-2,-2,0,0,-4,0,-1,-1
11498,12254,-2,-2,0,1,2,-2,-2,-2
11498,12254,-1,1,2,-1,1,0,1,-1
11518,12275,2,-1,-1,-1,-3,-2,1,-3
11518,12275,0,0,0,-2,0,-1,-1,-2
11520,12276,1,0,-2,-2,-3,1,1,0
11520,12276,2,-2,-1,0,-3,1,0,0
11541,12297,-1,0,0,0,-6,0,-3,-2
11541,12297,-1,0,-1,0,10,0,-1,0
11542,12299,1,2,0,-1,-3,0,-2,-2
11542,12299,-1,0,-1,1,-2,-1,0,0
11556,12312,-1,-1,-2,-2,10,0,2,2
11556,12312,1,-1,-1,0,0,-1,0,1
11563,12320,-1,-1,-1,0,2,-1,1,-3
11563,12320,0,0,1,2,0,1,-1,-3
11578,12335,-1,-1,-1,0,-1,-1,-2,-3
11578,12335,0,2,0,0,-6,0,0,0
11580,12336,-1,-2,-1,1,-4,1,-1,4
11580,12336,-1,2,-2,-2,-3,-1,-1,-2
11601,12357,-1,-1,0,-2,-6,-3,0,-3
11601,12357,-1,-1,-1,-2,-3,-1,-2,-2
11602,12359,-3,0,0,-1,2,-1,1,-1
11602,12359,-1,-1,1,2,-4,-2,1,3
11615,12372,1,0,-2,0,3,1,0,2
11615,12372,1,1,-1,-2,-1,-1,0,0
11622,12379,1,0,-1,0,-5,0,-1,-2
11622,12379,-2,1,-1,-1,-3,-2,-2,0
11638,12394,0,-2,-2,-1,-3,0,0,-2
11638,12394,1,-1,0,1,-1,0,-1,-1
11640,12395,-1,-1,0,0,-1,-1,0,-1
11640,12395,0,-2,0,0,1,1,1,0
11668,12425,1,0,-1,0,-3,0,1,1
11668,12425,-1,1,-1,-1,1,1,0,0
11670,12426,0,0,0,-1,2,-1,-2,-1
11670,12426,0,0,-1,-1,0,0,-1,-4
11675,12431,0,-1,-1,0,-1,0,0,-1
11675,12431,0,0,-2,0,0,0,1,2
11682,12439,0,0,-2,0,0,-1,-1,-2
11682,12439,1,1,0,-1,0,-2,-1,1
11698,12455,-1,-2,0,-1,-3,-2,-1,0
11698,12455,0,-1,-2,0,0,2,-2,0
11700,12456,0,-1,-1,0,-2,0,-1,3
11700,12456,-2,-3,0,0,2,0,1,2
11720,12477,-2,1,0,-2,-1,0,0,5
11720,12477,0,1,1,1,4,-1,3,3
11728,12485,0,-1,-1,2,4,1,-1,-3
11728,12485,2,-1,0,-1,4,-1,0,-1
11735,12491,1,-2,-1,0,-2,0,1,-2
11735,12491,2,-1,0,0,2,-1,1,-2
11742,12499,1,1,-1,0,3,-1,-1,-1
11742,12499,-2,-1,-1,-1,5,0,0,-2
11758,12515,-1,2,-1,-2,-2,0,-3,-4
11758,12515,-4,-1,-2,0,0,1,-1,0
11760,12516,-2,-2,-2,0,1,-1,1,1
11760,12516,0,1,0,2,-2,-3,0,2
11781,12537,0,1,1,-1,2,-2,1,2
11781,12537,0,0,-1,-1,-1,0,-1,2
11782,12539,0,0,0,0,-5,-1,-2,2
11782,12539,-2,0,-1,-1,-8,0,1,-2
11803,12560,1,0,-1,0,-1,-1,0,-7
11803,12560,0,1,-1,-1,-7,-2,-1,-3
11805,12561,0,0,1,-3,-3,1,-1,-1
11805,12561,1,1,-2,-1,-8,0,-2,-2
11818,12575,0,-2,1,1,-10,-2,0,-2
11818,12575,0,-1,1,-1,-3,1,-3,-1
11820,12576,-1,-1,0,-1,-5,1,0,0
11820,12576,-1,-2,0,0,-10,-2,1,2
11841,12597,-2,-2,-1,0,-8,0,0,2
11841,12597,-4,0,-1,1,-7,-3,-2,1
11842,12598,-1,0,-1,2,-6,-2,1,-1
11842,12598,0,-2,0,-3,-4,-3,-3,0
11854,12611,0,2,-2,0,-4,0,2,1
11854,12611,2,0,0,-1,-5,0,1,-1
11863,12619,0,-1,0,-1,-1,1,-1,-4
11863,12619,-1,0,-2,0,-5,0,-2,-4
11878,12635,-1,-1,0,-1,-2,1,-1,0
11878,12635,0,1,-3,-3,-2,1,1,0
11880,12636,2,1,-1,1,5,1,-2,2
11880,12636,-1,0,-1,0,-2,-1,1,2
11901,12658,-1,0,-1,-2,-4,-4,0,1
11901,12658,1,0,0,-1,1,-1,0,-2
11902,12659,-1,1,-1,0,1,-3,0,-4
11902,12659,0,-2,-1,-1,-1,-1,1,-2
11915,12671,0,0,2,0,-2,-1,-2,-1
11915,12671,0,-2,-3,-1,-6,-1,-3,0
11923,12680,0,-1,-2,-2,1,1,-2,1
11923,12680,0,0,1,0,1,2,-1,0
11946,12703,-1,-2,-1,0,-3,0,1,-1
11946,12703,0,0,0,0,4,-2,2,-3
11947,12704,0,1,-1,0,4,0,0,1
11947,12704,-1,0,0,-1,1,-1,-1,0
11961,12717,-1,-2,-2,-3,0,1,-4,0
11961,12717,-1,-1,0,-1,5,1,-2,4
11962,12719,0,-1,-2,1,3,-2,1,1
11962,12719,1,0,1,1,-2,0,1,1
11974,12731,3,0,1,1,-4,1,0,2
11974,12731,0,-2,-2,-1,-1,0,0,-4
11983,12740,-3,-1,0,-3,-1,1,-2,0
11983,12740,0,0,-1,1,4,1,0,-2
11998,12755,0,1,-1,0,6,-1,-2,-3
11998,12755,-1,-1,-1,0,-1,1,-2,0
12000,12756,0,-1,0,-2,1,0,3,-1
12000,12756,-1,-2,-1,-1,3,-1,1,0
12028,12785,-1,1,-2,0,-7,-2,-1,0
12028,12785,-2,0,0,1,12,2,1,-3
12030,12786,0,0,0,0,4,-2,1,-3
12030,12786,-1,1,1,0,-8,-1,-3,0
12034,12791,0,-1,-1,-1,1,1,-1,0
12034,12791,-2,0,0,0,-1,-2,-3,1
12043,12799,0,-1,-1,0,-2,1,-2,-1
12043,12799,-2,-1,-2,0,0,2,0,0
12058,12815,-3,-3,-1,1,10,1,2,0
12058,12815,-1,0,-1,-1,-3,-1,2,0
12060,12816,1,-1,-1,-3,8,-2,2,3
12060,12816,0,0,-2,0,5,-1,0,0
12081,12837,0,0,-2,0,-2,1,-1,1
12081,12837,2,1,-1,-1,3,1,-1,-3
12082,12839,1,-2,0,0,8,0,-2,-2
12082,12839,1,0,-1,-2,-4,-2,1,-1
12094,12851,-2,1,-2,0,-3,-2,2,-2
12094,12851,-1,-1,-1,-1,1,1,-2,2
12103,12860,0,0,-1,1,1,1,-1,3
12103,12860,-1,-2,-1,0,5,1,-3,1
12118,12875,2,-1,1,0,6,1,2,0
12118,12875,2,-1,1,-1,1,-1,0,0
12120,12876,1,0,0,2,5,0,-1,-1
12120,12876,0,0,0,-1,0,0,1,-1
12141,12898,-3,-1,0,-2,0,-1,-2,-1
12141,12898,1,1,1,0,5,1,1,-1
12142,12899,-1,-2,1,-3,0,-2,-2,-2
12142,12899,-3,0,-1,1,-6,-2,1,0
12154,12911,-1,-2,0,-2,-3,-2,-3,-2
12154,12911,-1,-2,0,-1,-9,-3,0,-2
12163,12920,0,0,-1,-2,-3,-1,-1,-2
12163,12920,0,-1,1,0,-3,-1,-1,0
12178,12933,0,0,-1,0,-1,3,0,0
12178,12933,-1,2,-1,-1,-9,-1,0,0
12178,12935,0,-2,0,0,-15,-1,0,1
12178,12935,1,0,0,0,-13,-1,-3,1
12200,12957,-1,-2,0,0,-4,-4,-2,2
12200,12957,-2,0,0,-1,-6,1,0,2
12201,12958,-2,0,1,-1,-18,-1,0,-3
12201,12958,0,1,1,-1,-5,1,1,-5
12222,12979,0,-2,-2,0,-5,0,-1,-4
12222,12979,-1,-1,-1,0,-2,-4,2,1
12223,12980,-2,2,-2,1,-4,-4,1,0
12223,12980,-1,-2,1,0,-5,1,-1,0
12237,12994,1,-1,-1,-3,-3,-1,-2,0
12237,12994,0,1,0,0,2,-1,-1,-1
12238,12995,0,0,0,-2,3,1,-1,-1
12238,12995,-1,0,-3,0,-4,-3,0,1
12260,13017,1,1,0,0,2,-1,-1,1
12260,13017,3,1,0,-2,0,0,0,0
12261,13017,0,-2,0,1,2,-2,1,2
12261,13017,0,-1,-1,-1,3,0,-1,-2
12283,13039,-1,-1,1,0,2,0,-3,-5
12283,13039,-1,-1,-1,-1,2,-1,-1,-4
12283,13040,-2,0,1,-1,4,1,-2,-3
12283,13040,0,-1,-1,-2,2,-2,-1,2
12297,13054,-4,-2,-1,1,-5,-1,1,3
12298,13054,0,0,-1,1,-1,2,-1,1
12298,13055,-1,4,0,-2,-5,0,0,0
12298,13055,-1,-3,-1,0,-6,-1,0,-1
12320,13076,2,-1,0,-1,10,1,-1,-2
12320,13076,0,-2,-1,-1,1,0,-1,-3
12321,13077,0,-1,0,0,-10,-1,-1,-2
12321,13077,1,-1,0,-2,3,-2,-1,1
12342,13099,1,2,0,-1,-3,-1,1,1
12342,13099,-4,-3,1,-2,-1,0,-2,1
12343,13100,-1,2,-1,1,-5,-1,-2,-1
12343,13100,-1,0,-1,-2,-3,-1,-2,1
12357,13114,1,-3,0,0,1,-1,-1,-1
12357,13114,1,-2,-1,1,-1,0,-1,-1
12358,13115,-2,0,0,-1,-7,0,-2,0
12358,13115,-2,0,-1,0,-7,-3,0,-3
12380,13137,-2,1,-1,-1,11,2,2,-6
12380,13137,3,1,-1,-2,-2,-2,-2,0
12381,13138,3,-1,-1,-2,7,2,0,2
12381,13138,-2,-1,-2,1,-1,-2,2,2
12403,13159,-2,0,-2,0,8,0,0,3
12403,13159,1,0,-1,1,0,0,-1,0
12403,13160,0,-1,-1,0,7,0,0,1
12403,13160,-1,0,0,1,-3,2,-2,0
12417,13174,-2,-1,0,0,8,0,0,-1
12417,13174,-4,-1,-1,-1,-5,-1,2,-2
12418,13175,1,-1,-2,-1,7,0,-1,0
12418,13175,2,1,1,0,8,2,1,-2
12440,13197,-1,-1,0,-3,3,0,0,-1
12440,13197,0,0,-1,-1,1,0,-2,-1
12440,13197,0,1,-1,0,16,-1,0,1
12441,13197,-2,-2,0,1,-4,-1,-2,2
12463,13219,0,1,-2,-1,-1,-1,-1,3
12463,13219,1,0,-1,0,3,-1,1,2
12463,13220,-2,2,1,0,-2,1,-1,-2
12463,13220,1,0,-1,0,4,-2,-2,-2
12478,13234,2,-1,-1,-2,4,1,-2,1
12478,13234,-2,0,0,0,2,0,1,-1
12478,13235,-1,0,-2,0,-4,0,0,0
12594,13235,1,0,0,0,5,2,-1,-1
12594,13257,1,1,3,0,0,-1,-1,-4
12594,13257,0,-1,-1,-1,-2,-1,0,1
12594,13257,1,0,0,0,-1,0,1,-1
12594,13257,1,-1,1,-3,-1,-1,-1,-1
12594,13280,-1,-2,-1,0,0,-1,0,3
12594,13280,-1,0,1,-1,2,0,-1,2
12594,13280,0,1,0,0,-4,-3,0,1
12594,13280,0,-1,-1,-2,-5,-2,-2,0
12594,13295,-1,0,-2,-1,14,1,0,-4
12594,13295,-1,0,-1,0,-4,0,-2,-3
12594,13295,-4,0,-1,1,-11,1,-2,-3
12594,13295,-1,-2,-1,-2,-7,0,1,-2
12594,13317,2,-1,-2,0,-11,-1,1,1
12594,13317,2,-1,0,-2,-4,-1,-1,-1
12594,13317,1,-2,0,0,-13,-3,1,-1
12594,13317,2,-3,-1,0,-7,-2,1,-1
12594,13347,-2,3,2,-1,-12,-1,-1,0
12594,13347,1,0,0,0,-8,-1,0,-1
12594,13348,-3,-2,0,-1,-9,0,1,-1
12594,13348,0,1,-1,-1,-9,-1,-1,-1
12597,13354,1,0,-3,0,-6,-2,-1,0
12597,13354,1,0,0,0,-8,-1,1,2
12598,13355,0,1,-1,-1,0,1,-2,1
12598,13355,-2,-1,0,-2,0,0,1,1
12620,13377,0,0,1,1,1,1,-1,-3
12620,13377,-3,-1,0,0,-6,-1,-2,-1
12621,13377,2,1,-1,-1,9,0,0,-2
12621,13377,1,-1,1,-1,-2,-1,-1,1
12642,13399,0,0,-1,0,5,0,-2,2
12642,13399,-1,0,0,0,10,-1,-1,0
12643,13400,0,-3,0,-1,10,-1,1,1
12643,13400,-2,-1,-1,0,-2,-2,2,0
12657,13414,1,0,-2,-1,11,0,0,-4
12657,13414,1,-1,0,-1,5,-1,-2,-2
12658,13415,-1,1,0,-4,6,0,-2,-1
12658,13415,0,1,1,1,-4,0,-2,-2
12680,13436,-2,-1,0,1,-3,0,1,0
12680,13436,-1,-1,1,-1,2,0,0,-1
12680,13437,0,-1,0,1,3,0,0,-3
12681,13437,-2,-1,1,-1,1,1,0,-2
12702,13459,-2,1,1,0,6,0,1,2
12703,13459,-1,1,0,0,14,2,1,3
12703,13459,-2,-1,0,0,4,-2,0,5
12703,13459,-1,-1,-1,-2,2,1,-3,0
12717,13474,3,0,0,0,6,2,1,-1
12717,13474,2,1,0,-1,4,-2,-3,0
12718,13474,1,0,1,-2,8,0,1,-3
12718,13474,1,-2,-2,0,1,-1,0,1
12740,13497,-2,-1,-1,0,1,-2,-2,-2
12740,13497,-1,0,0,0,-3,-3,-1,0
12741,13497,-2,0,0,0,0,0,1,-1
12741,13497,0,1,-1,1,1,-1,1,-1
12762,13519,0,2,1,-1,5,1,-1,-2
12763,13519,0,-2,-3,1,3,1,-1,-2
12763,13520,0,0,0,3,2,-1,-2,-3
12763,13520,-1,-2,1,-1,3,-3,-3,-2
12777,13533,-2,0,-2,0,-3,0,1,0
12778,13533,-2,0,0,1,-1,0,-1,0
12778,13535,-1,0,0,-1,2,1,-2,0
12778,13535,0,-1,-1,-1,3,0,1,0
12800,13556,1,0,0,-1,10,0,-1,1
12800,13556,-1,1,0,0,3,-1,1,-2
12801,13557,1,1,-1,1,4,-1,1,1
12801,13557,1,1,1,2,2,-2,-1,1
12822,13579,-2,0,1,-2,5,0,-3,3
12823,13579,3,-1,0,0,4,1,-2,1
12823,13579,2,0,-2,2,1,-1,0,1
12823,13579,1,0,-1,-1,3,-1,0,-1
12837,13594,-1,2,-2,0,5,1,2,-1
12837,13594,-2,0,0,0,0,0,0,-2
12845,13601,0,-2,-1,-1,3,-1,-1,0
12845,13601,-2,-1,-1,0,6,0,-1,-1
12860,13617,1,-2,-2,-1,5,2,0,-3
12860,13617,-2,2,-1,-2,4,1,1,0
12861,13617,1,-1,0,0,5,-1,1,-1
12861,13617,-1,-1,0,0,4,0,1,2
12882,13639,-1,0,2,1,-3,-3,-1,3
12883,13639,0,0,-2,0,1,1,0,0
12883,13640,-1,-2,0,-1,-1,-1,-1,1
12883,13640,-2,1,0,1,5,0,1,-1
12897,13655,-1,0,-1,0,6,1,1,-3
12897,13655,0,-1,-1,-1,-4,1,-1,0
12898,13655,1,-2,0,1,-1,0,-1,-3
12898,13655,0,-3,0,0,-2,3,-1,-2
12920,13677,2,0,0,1,-2,1,0,-1
12920,13677,-2,0,0,-1,-14,-2,0,1
12921,13677,-2,0,-1,-2,-4,-2,1,2
12921,13677,-2,0,-2,0,-8,-2,-1,-2
12942,13699,1,2,0,-1,-3,-2,-1,1
12942,13699,0,0,-1,-3,-23,-2,-1,0
12943,13699,-1,-1,1,0,-6,0,0,-1
12943,13699,1,-1,0,-1,-7,0,0,-2
12957,13714,-1,0,0,1,2,0,0,-1
12957,13714,1,-1,-1,2,-11,-3,1,-2
12965,13721,1,0,-2,0,-9,1,0,3
12965,13721,0,0,-1,-2,-4,-2,0,0
12980,13737,-2,0,-2,0,-7,1,1,-2
12980,13737,0,-1,1,2,-11,1,1,1
12981,13737,1,0,0,0,-8,-1,-3,-1
12981,13737,-1,0,-1,1,0,-2,1,-2
13002,13759,-3,-2,0,-1,3,1,-1,3
13002,13759,-3,-1,-1,0,10,0,1,1
13003,13760,-2,-1,0,1,4,-3,0,1
13003,13760,-1,0,1,0,-2,2,-2,3
13017,13774,2,2,1,-3,3,1,0,-2
13017,13774,-2,-2,-1,-1,14,-1,0,-3
13025,13781,0,-2,-2,1,2,1,-1,-3
13025,13781,0,-1,-1,0,3,0,-3,-1
13040,13796,-1,1,1,0,9,-1,0,0
13040,13796,1,2,0,0,11,-2,-1,2
13041,13797,-1,0,-1,-1,7,1,1,2
13041,13797,3,-2,1,0,-1,1,1,0
13063,13819,-1,0,-1,-1,2,1,-2,1
13063,13819,1,1,-1,-1,12,0,-1,0
13063,13819,0,0,-1,0,3,1,-1,-2
13063,13819,-1,-3,-1,-1,3,-2,-1,-3
13086,13842,-2,0,0,0,-8,-1,-1,0
13086,13842,-2,0,1,-2,10,-2,-3,-2
13086,13843,-1,0,-1,1,-1,-2,0,1
13086,13843,-1,0,-1,-1,3,-3,-3,2
13100,13857,-2,0,-3,0,11,1,-1,-2
13100,13857,-1,-2,-4,-1,-2,1,0,-4
13101,13858,0,0,1,-3,4,2,1,-2
13101,13858,-1,2,-2,-1,-3,-1,0,-1
13122,13880,2,2,0,-1,4,-1,-1,2
13123,13880,0,1,-1,0,6,1,-1,0
13123,13880,0,-2,1,-1,-8,-2,0,-2
13123,13880,-3,-1,-1,-2,4,0,-2,0
13137,13894,-1,0,0,-2,7,1,0,1
13137,13894,1,-1,-1,0,0,0,2,1
13145,13901,-2,1,-1,-2,0,-2,-2,-1
13145,13901,0,-1,0,-1,3,-1,0,-3
13160,13917,0,0,0,-3,1,-1,-3,4
13160,13917,0,-2,1,0,2,1,0,-1
13161,13918,0,1,-2,0,-4,1,1,0
13161,13918,0,-1,-1,0,1,-1,1,-3
13182,13939,0,0,1,1,-2,-1,-1,-4
13182,13939,0,-1,-1,-2,3,2,1,-1
13183,13940,-2,-1,-2,0,1,-1,0,3
13183,13940,-1,2,0,-1,4,1,0,0
13197,13954,-2,0,0,0,1,-1,1,1
13197,13954,0,0,-1,0,4,1,-1,2
13205,13962,0,-1,0,0,1,0,-3,0
13205,13962,-2,1,0,1,5,1,0,2
13220,13977,-1,1,-2,1,7,-1,-1,2
13220,13977,-1,2,-1,-2,6,-1,0,-1
13221,13978,0,-3,-1,-2,6,0,0,-2
13221,13978,-1,-2,-2,-1,0,0,-2,-2
13242,13998,-1,-1,-3,-3,4,0,0,0
13242,13998,1,3,2,1,1,-1,-1,-1
13243,14000,-1,0,-2,0,-4,0,0,0
13243,14000,1,-2,0,0,6,0,1,-2
13266,14022,1,2,-2,-1,7,1,2,-2
13266,14022,-1,-2,-2,-1,-6,-3,-1,1
13266,14023,0,1,1,0,-1,-1,-3,-1
13266,14023,-3,-3,0,-2,2,-1,-1,0
13280,14036,0,-2,1,1,6,2,-1,0
13280,14036,0,-1,0,-2,-10,-1,1,0
13281,14037,1,2,0,0,4,-2,0,-3
13281,14037,0,-1,-1,0,3,-1,-1,1
13302,14059,0,-1,-2,0,-2,-1,-3,1
13303,14059,-1,-2,0,0,-15,-2,-2,0
13303,14060,-2,-3,-1,0,-12,-3,0,0
13303,14060,2,0,0,0,-5,-1,-3,-1
13326,14082,1,-1,-2,1,2,1,3,-3
13326,14082,0,-2,-2,-1,-11,-1,-1,-3
13326,14083,1,-1,0,-1,-7,-3,2,-1
13326,14083,-1,-2,0,-3,-2,-1,-1,1
13340,14097,0,0,0,0,8,0,0,1
13340,14097,-2,-1,-2,1,0,-1,-4,1
13341,14097,0,-1,-2,0,0,0,-1,-1
13341,14097,0,0,0,-1,3,0,0,-2
13362,14119,-1,1,2,-1,-3,1,0,-3
13362,14119,-3,-1,0,-2,2,2,-2,-1
13363,14120,-1,-2,0,0,11,-2,-1,0
13363,14120,-1,-1,-2,0,-1,0,-1,1
13386,14143,-2,1,-1,0,-11,-1,-1,2
13386,14143,2,-1,2,0,14,-3,-2,0
13386,14143,-2,0,2,-1,-6,1,-1,-1
13386,14143,-1,0,1,-2,1,-2,1,-2
13400,14157,0,-3,0,-2,0,0,-1,-1
13400,14157,-2,0,-1,0,0,-1,4,1
13401,14157,-2,0,1,1,4,0,-1,-1
13401,14157,0,0,1,1,3,-1,1,1
13422,14179,1,1,-1,1,3,-1,-2,-1
13422,14179,0,0,-1,-1,0,2,-1,4
13423,14180,1,-1,0,-1,8,1,-1,6
13423,14180,-1,-1,0,0,4,-1,1,1
13446,14202,2,-1,0,-2,-2,2,-3,0
13446,14202,-1,-1,0,-1,10,1,0,-2
13446,14203,2,-2,-1,0,-2,-1,0,-1
13446,14203,1,-1,-1,0,5,1,1,1
13460,14216,-2,0,-1,0,-1,-1,1,-1
13460,14216,1,1,-1,0,5,1,0,1
13461,14217,0,0,-1,0,-3,0,-1,-2
13461,14217,-2,-2,0,1,1,0,-2,-3
13483,14239,0,0,1,1,-5,-2,0,-2
13483,14239,0,-2,-2,-1,7,-1,-1,-5
13483,14240,2,2,0,0,-5,-2,-1,-3
13483,14240,-1,-1,-1,-1,2,-1,-1,1
13506,14263,-4,0,-1,-1,4,1,0,4
13506,14263,-1,2,1,0,-4,-1,-1,1
13507,14264,0,-1,-2,1,-4,1,-1,3
13507,14264,1,0,0,1,5,-2,1,0
13520,14276,1,1,0,-1,-4,-2,0,-2
13520,14276,0,0,-1,-2,3,-1,0,-3
13521,14278,-2,-2,0,-2,3,1,0,-2
13521,14278,-1,0,0,-1,-1,2,-2,-1
13543,14299,-3,0,-1,1,5,-1,-1,1
13543,14299,3,-1,1,-1,-1,2,0,0
13543,14300,-1,-2,0,-1,1,0,0,2
13543,14300,0,0,-1,-2,7,0,0,4
13566,14322,1,-2,-1,0,5,0,0,2
13566,14322,0,0,0,-1,3,-1,-1,0
13566,14323,0,1,1,-1,3,-2,1,0
13566,14323,1,-1,1,-1,1,0,0,-3
13581,14337,-1,-2,-1,0,-12,-1,0,0
13581,14337,-1,0,-2,1,1,1,0,-3
13581,14338,1,0,0,0,-5,-2,-1,-2
13581,14338,-1,1,0,-1,1,0,1,-3
13603,14360,-1,1,0,0,8,0,-2,-1
13603,14360,-1,-1,0,0,1,-1,-2,4
13603,14360,-2,-2,1,-1,-1,0,-1,2
13603,14360,1,-1,-2,0,3,1,-4,1
13626,14383,1,1,1,-1,4,3,0,-1
13626,14383,0,0,1,-1,8,-1,-2,0
13626,14383,0,-1,0,1,3,-1,-1,0
13626,14383,0,-1,-2,-1,-1,-2,0,-2
13640,14397,-2,-1,-1,0,-7,0,-1,-2
13640,14397,0,0,-1,1,-4,0,-1,-3
13641,14397,0,0,0,0,-1,-1,0,-2
13641,14397,-2,-1,-1,-1,4,0,0,-3
13671,14428,1,1,-2,-2,6,0,0,-2
13671,14428,-3,-2,-2,-1,-7,-1,1,-1
13671,14428,1,-1,-2,2,-6,-2,-1,1
13671,14428,0,1,-2,0,-9,-1,1,1
13693,14450,1,-1,-1,-1,-11,-1,1,2
13693,14450,3,0,-1,1,-8,-3,0,0
13694,14450,-2,-2,-2,-2,-7,0,-1,-4
13694,14450,-1,1,1,0,0,0,-2,0
13700,14457,-2,0,-1,1,1,0,0,0
13700,14457,-1,-1,0,-2,-12,-1,0,2
13701,14458,-1,-1,0,-2,-8,-2,0,-3
13701,14458,1,1,-1,-1,-5,0,-1,-2
13722,14479,-1,0,1,-1,-2,0,-3,-5
13722,14479,-1,1,1,-1,-2,-1,-1,0
13723,14479,1,1,-2,-1,0,0,-1,-1
13723,14479,-1,-1,0,-1,1,-2,0,2
13746,14503,1,-1,-1,3,4,1,-1,3
13746,14503,-1,-2,1,1,4,0,0,1
13746,14503,-2,-1,1,1,-4,0,0,-1
13746,14503,1,0,-2,-2,4,1,1,0
13760,14516,1,2,0,1,2,0,0,1
13760,14516,-1,-3,-3,0,1,1,-3,-1
13761,14517,-1,-1,0,0,0,0,1,0
13761,14517,-1,-2,-1,-3,7,-1,0,0
13782,14539,0,1,-1,-2,-8,-2,2,1
13782,14539,0,0,-1,-2,-1,0,-1,0
13783,14540,-1,0,-1,1,7,-1,-1,2
13783,14540,-2,-1,0,-1,2,1,0,-1
13806,14563,-1,0,0,-1,5,-2,0,-1
13806,14563,-3,2,2,0,7,-1,1,3
13806,14563,-2,-1,0,-2,0,-1,0,3
13806,14563,0,-1,0,1,5,1,-2,3
13820,14577,2,-2,-2,-5,8,0,0,0
13820,14577,2,0,-1,-1,2,0,1,-2
13821,14578,2,0,-1,-2,2,-3,-1,-4
13821,14578,-1,-1,-1,1,7,2,1,-2
13842,14599,-2,-1,-1,-1,6,1,-1,-4
13842,14599,0,1,0,1,1,2,1,-2
13843,14600,0,0,1,0,3,0,-3,2
13843,14600,-2,0,0,-1,7,-2,-1,-1
13866,14623,0,0,0,1,4,1,-1,0
13866,14623,0,0,-1,-1,1,1,1,-1
13866,14623,0,-2,-1,1,1,0,-1,0
13866,14623,0,0,-1,0,4,1,-1,0
13879,14636,-1,-3,-2,0,-10,1,-1,0
13879,14636,0,-2,0,1,0,0,0,0
13887,14644,1,-1,-1,-2,-3,-1,2,0
13888,14644,-2,0,-1,0,6,0,3,-1
13902,14658,0,0,1,-1,9,-2,1,0
13902,14658,-2,-1,-2,0,1,0,1,-2
13903,14660,2,-1,-1,0,0,-1,1,-3
13903,14660,-2,0,-1,-1,1,0,-2,0
13926,14683,-3,0,0,1,5,1,-3,-1
13926,14683,-1,-1,-1,0,-2,1,-1,-2
13926,14683,1,-1,0,0,8,1,-1,-1
13926,14683,0,-1,0,1,-3,1,0,1
13939,14696,2,0,0,-1,5,0,1,1
13939,14696,0,0,-2,0,4,1,-3,0
13947,14704,-3,1,0,-1,-1,-1,0,0
13947,14704,0,0,0,0,0,-2,-2,-5
13962,14719,-2,0,-1,-1,7,1,-1,0
13962,14719,0,0,-1,-2,1,0,-1,-1
13963,14720,1,-1,0,-1,10,1,-2,0
13963,14720,0,-1,1,1,7,0,-1,1
13986,14743,0,1,0,0,-5,-2,0,1
13986,14743,-1,1,-1,-1,7,2,-3,1
13986,14743,1,-1,0,0,1,1,-1,1
13986,14743,3,-1,0,-2,1,0,0,0
14008,14764,-2,0,0,1,7,0,0,2
14008,14764,0,-1,-1,-1,3,-2,1,0
14009,14765,-1,1,1,0,-5,-1,1,-1
14009,14765,-2,2,-1,0,6,-1,0,0
14022,14779,-1,0,0,0,5,0,0,0
14022,14779,-1,-1,0,0,1,-1,-1,-1
14023,14780,-1,-2,-1,1,2,0,0,-4
14023,14780,2,-1,1,-2,2,1,-1,-1
14046,14802,0,1,-1,0,-3,0,0,-2
14046,14802,0,1,-2,-1,-2,0,0,3
14046,14803,0,-2,1,0,-9,-2,-1,1
14046,14803,-1,0,-1,-1,-2,-1,-1,4
14059,14816,1,1,-1,-2,-8,-2,1,1
14059,14816,0,-1,0,0,-10,-3,-1,-1
14067,14825,0,-2,-2,-2,-10,-2,-1,0
14067,14825,1,-3,0,0,-5,0,-1,1
14082,14839,0,-2,-1,-1,-14,-2,0,-3
14082,14839,1,-1,1,1,-10,-3,1,2
14083,14840,0,2,-4,0,-4,0,-2,1
14083,14840,-1,0,0,0,-6,-1,-1,-2
14106,14863,-1,-1,-1,0,1,0,0,-1
14106,14863,0,-1,0,-1,-6,1,1,-1
14106,14863,-2,-2,0,0,-3,-3,1,-1
14106,14863,0,0,-2,0,3,0,-1,1
14128,14885,1,0,0,1,4,-1,-1,1
14128,14885,0,0,1,1,0,0,-1,-3
14129,14885,-3,-1,-1,-1,1,-1,2,-4
14129,14885,-2,-2,-2,0,3,0,0,-3
14142,14899,0,2,-1,1,21,-1,2,-2
14142,14899,2,1,0,1,6,1,-2,1
14143,14900,2,-2,0,-2,2,0,-1,0
14143,14900,-1,-2,0,-1,-1,-1,0,-1
14166,14923,1,-1,0,-1,1,0,-2,-2
14166,14923,0,1,-1,0,6,0,-1,1
14166,14923,0,-3,0,0,-2,-2,-1,0
14166,14923,1,1,-2,-1,7,-1,0,3
14179,14936,-1,-3,-1,-1,-7,1,-1,3
14179,14936,-1,-1,0,0,-1,-1,1,-1
14187,14943,-1,0,0,-1,-4,-1,1,-1
14187,14943,0,1,-2,-2,5,-1,1,-2
14202,14959,0,0,0,0,5,-1,-1,-2
14202,14959,-1,-1,0,0,3,1,-1,0
14203,14960,2,0,1,1,5,-1,-4,1
14203,14960,1,2,1,0,9,0,-1,2
14226,14982,0,2,0,0,2,0,-1,1
14226,14982,-2,-2,0,-1,5,-1,-1,0
14226,14983,0,0,-1,-3,-2,-3,0,1
14226,14983,-1,1,1,-1,2,1,0,-1
14248,15004,0,-1,0,-1,2,1,1,1
14248,15004,0,1,-1,-2,-1,-1,-2,-1
14249,15006,0,-1,-1,0,0,-1,0,-1
14249,15006,-1,1,-2,1,3,-1,0,-3
14262,15019,0,0,-1,-1,13,1,-1,-2
14262,15019,-1,-2,1,0,2,-1,3,0
14263,15019,-1,0,1,0,9,0,-1,2
14263,15019,0,0,0,0,7,1,0,1
14286,15042,-3,0,-1,0,-6,-1,0,1
14286,15042,-1,1,-1,-1,4,-1,1,2
14286,15043,-1,1,-2,-2,10,-1,1,-1
14286,15043,0,0,-1,1,1,0,-1,-2
14308,15064,0,-2,-1,-2,6,0,0,-2
14308,15064,-1,1,0,0,4,-2,-1,-3
14309,15065,0,-1,0,-1,-2,2,-1,1
14309,15065,0,-2,-2,-2,4,0,0,3
14322,15079,-2,1,0,1,10,1,-1,1
14322,15079,2,2,-1,0,3,0,0,0
14323,15079,1,2,0,0,4,0,1,-1
14323,15079,0,2,0,0,7,-2,1,-3
14346,15102,0,-2,-1,0,0,-1,0,3
14346,15102,-1,-1,-1,-1,6,0,0,-2
14346,15103,0,0,2,0,10,2,-1,-2
14346,15103,2,-1,1,-2,1,1,-2,-1
14368,15125,-3,-3,0,0,-5,0,0,1
14368,15125,1,-1,0,0,4,-2,0,2
14369,15125,-1,-2,-1,0,-5,1,-1,-1
14369,15125,-1,3,-1,2,4,0,0,1
14382,15139,-1,1,0,0,3,1,3,-1
14382,15139,2,0,-1,0,4,-1,-1,0
14383,15140,-2,-1,-1,0,1,1,-2,-3
14383,15140,0,0,-2,-3,3,1,-2,-3
14406,15163,-1,0,-3,-1,0,1,-1,-3
14406,15163,-1,1,-1,1,-1,-2,-1,-4
14406,15163,-1,-1,-2,-1,-2,-2,0,-3
14406,15163,-1,-2,0,1,1,-1,-2,0
14428,15185,-2,0,-1,2,-10,-3,1,3
14428,15185,-1,0,0,-2,-6,0,-1,6
14430,15186,-2,-1,0,-1,-7,-3,0,4
14430,15186,-1,0,1,1,-5,1,1,1
14442,15199,2,0,1,0,-8,-1,1,-1
14442,15199,-2,-2,-1,0,-4,-2,0,-2
14451,15207,-1,0,-3,-1,-8,-1,0,-1
14451,15207,0,0,-2,-1,-5,0,0,0
14473,15230,-1,0,1,1,-11,-1,-2,0
14473,15230,0,-1,-1,-1,-11,0,2,2
14475,15231,1,0,1,-1,-11,-2,1,0
14475,15231,0,0,0,-1,-3,-1,2,-2
14496,15252,4,1,0,-1,-3,0,-1,-1
14496,15252,-1,-3,-2,0,-7,1,-1,-3
14497,15254,-1,-3,0,0,3,-1,-1,0
14497,15254,-1,0,0,1,-2,2,-1,-1
14502,15259,0,-1,1,-3,-8,0,-2,-1
14502,15259,1,0,-1,0,3,1,0,-1
14511,15268,1,-1,0,0,1,-2,-1,-1
14511,15268,-2,0,0,-1,3,0,-1,1
14526,15282,-2,0,-2,-1,1,0,-1,1
14526,15282,-2,-1,1,0,2,2,0,1
14527,15284,1,-2,-1,0,7,1,-2,0
14527,15284,2,0,-1,0,9,0,2,1
14548,15304,-1,0,-1,0,-4,-2,-1,0
14548,15304,0,0,2,1,5,-2,1,-1
14550,15307,0,-1,1,-1,2,2,1,-1
14550,15307,2,0,-2,0,3,0,-2,-2
14562,15319,1,0,1,-1,-3,-2,-1,-2
14562,15319,-2,0,0,0,-1,-1,1,-1
14571,15327,-4,0,2,-1,0,-1,2,-2
14571,15327,-1,0,0,-1,3,3,0,-1
14586,15342,0,0,-1,2,-2,-1,1,1
14586,15342,0,-1,0,-2,1,0,0,2
14587,15344,0,0,-2,2,11,-3,-1,-1
14587,15344,0,0,1,-3,-1,0,1,0
14608,15365,1,0,-2,0,3,2,0,-2
14608,15365,0,0,-1,-2,-5,-3,-1,1
14609,15367,0,0,-1,-2,0,1,-3,-1
14610,15367,-1,0,0,-2,3,-1,-2,1
14622,15379,-2,0,0,1,11,0,0,0
14622,15379,2,-1,-2,0,-2,0,-1,-1
14629,15386,1,-1,-1,-1,2,1,-1,0
14629,15386,1,-1,0,1,2,1,-1,3
14646,15402,-2,-1,0,-2,-1,-1,0,1
14646,15402,1,1,0,1,1,0,3,0
14647,15404,0,-1,0,-1,3,0,0,0
14647,15404,-1,0,-1,-2,-4,-1,0,0
14668,15425,-1,1,-2,0,6,-2,0,-1
14668,15425,2,-1,0,0,1,0,-1,-1
14670,15427,0,-1,1,-2,-1,-2,1,1
14670,15427,-1,2,-1,1,4,1,2,-2
14682,15439,-1,-1,0,-1,-7,-1,-2,-1
14682,15439,-1,0,-2,-1,-4,-1,-1,-2
14691,15447,1,-1,-3,1,3,0,-1,-4
14691,15447,-2,0,-1,0,4,0,0,-1
14706,15462,1,-2,1,1,-7,-3,-1,-2
14706,15462,-4,-2,-1,0,1,0,2,0
14707,15463,2,-3,-1,-2,2,1,2,1
14707,15463,-1,-1,-1,-2,1,0,1,0
14728,15485,1,0,-2,1,-7,1,-1,5
14728,15485,-1,-1,0,0,2,0,-3,2
14730,15487,2,-1,0,2,-2,-2,-2,0
14730,15487,0,2,-1,1,-1,0,0,-2
14742,15499,-1,0,-1,-2,-5,-1,1,-1
14742,15499,0,0,1,-1,-7,-2,-2,-1
14751,15507,-1,1,0,-1,4,0,0,-2
14751,15507,0,0,1,0,1,0,-2,4
14765,15523,-2,-1,0,1,-4,1,-1,0
14765,15523,0,-2,0,0,0,-4,1,-1
14772,15529,-1,0,-1,1,3,-1,0,-2
14772,15529,-2,3,-1,1,2,0,0,-5
14788,15545,1,-3,-1,-3,-6,0,0,1
14788,15545,1,-1,1,-1,5,0,0,-1
14790,15546,-1,-1,-2,0,-9,-1,-2,1
14790,15546,-1,0,-2,0,-6,-1,2,0
14802,15559,0,0,0,1,-14,0,-2,1
14802,15559,0,-1,0,0,-9,-1,-2,-2
14811,15567,1,0,-2,0,-6,0,-1,-1
14811,15567,-1,-2,1,-2,-6,0,-1,1
14826,15583,-2,-1,-1,1,-10,-1,1,-2
14826,15583,1,1,-1,-2,-7,-3,-1,-3
14833,15590,0,0,0,-1,-7,-2,1,-3
14833,15590,0,-1,-1,0,-6,-1,-2,2
14848,15604,-3,-1,0,-1,-11,-1,2,1
14848,15604,1,-2,0,1,-3,1,0,3
14850,15607,-2,-1,1,1,0,1,0,3
14850,15607,2,-1,-2,1,-7,-1,-1,-1
14862,15619,0,-1,-2,-2,-5,-2,0,0
14862,15619,-1,-2,-2,0,-3,1,0,-1
14871,15627,-2,-1,1,-1,-3,-1,1,1
14871,15627,0,-1,-1,-1,-4,1,-1,1
14885,15642,-2,0,-1,1,11,0,-1,-2
14885,15642,-3,0,-1,-1,-6,-3,-1,-3
14892,15648,1,0,-1,-3,-1,1,-1,-2
14892,15648,-1,-1,2,0,1,1,-1,-3
14908,15664,2,0,0,-1,2,0,-1,0
14908,15664,1,-1,0,0,5,1,-1,-1
14910,15667,-2,0,1,0,10,-1,-1,0
14910,15667,-1,-1,0,1,-5,-1,-1,0
14922,15678,-1,-1,-1,1,-2,-1,1,1
14922,15678,-1,0,-1,-1,5,1,1,1
14931,15687,-2,0,0,-1,2,1,0,-1
14931,15687,0,-2,1,0,1,-1,-1,-2
14946,15703,0,-1,2,0,8,-3,-1,-2
14946,15703,0,0,1,0,-3,-2,-1,0
14947,15704,0,0,-3,0,12,0,-2,0
14947,15704,-1,2,-1,-2,6,0,0,1
14968,15725,0,1,-1,-2,-4,-1,-2,1
14968,15725,-1,-1,1,-1,1,0,-2,4
14970,15726,0,-1,0,1,-3,1,0,-1
14970,15726,-1,-3,-2,0,-2,-2,-2,-2
14982,15739,0,-1,-1,0,-3,2,-3,-3
14982,15739,-3,-1,-1,-2,-8,-1,-1,-2
14991,15747,-1,-1,0,0,6,0,-1,-1
14991,15747,1,1,-3,1,1,0,1,3
15006,15762,2,-2,0,1,-2,0,0,1
15006,15762,1,-1,0,1,4,-2,2,0
15007,15763,-1,2,-1,1,2,1,0,-1
15007,15763,-1,-1,0,-1,-4,-2,0,-1
15028,15785,0,1,-2,-3,-7,-1,-4,1
15028,15785,-1,0,-1,-2,-2,-1,0,1
15030,15787,2,-2,0,-2,-4,-3,0,0
15030,15787,1,-1,1,-1,-3,1,-1,-2
15042,15799,-1,0,0,-2,1,0,0,-3
15042,15799,-1,-1,0,-1,-1,-2,-2,2
15051,15807,0,-2,0,1,2,0,0,0
15051,15807,1,1,1,0,1,1,-1,2
15065,15822,0,0,0,1,4,-1,-1,-2
15065,15822,1,3,-1,2,-4,-1,0,-4
15067,15824,-4,1,1,0,8,1,-1,-1
15067,15824,-1,-1,0,0,1,-1,1,0
15088,15845,0,-4,-2,0,-2,1,0,1
15088,15845,0,0,3,-3,-4,-1,-2,2
15090,15846,-1,0,-4,-1,5,0,0,-1
15090,15846,-1,2,0,1,2,1,-1,1
15102,15859,-1,1,-1,0,1,-1,1,2
15102,15859,-2,-2,-1,-1,1,-1,1,-2
15111,15868,1,0,0,-2,3,-1,-4,1
15111,15868,1,1,-1,1,3,1,1,-1
15126,15883,-2,-2,0,1,-1,-1,0,-1
15126,15883,1,-2,0,2,3,0,1,-2
15127,15884,-1,3,2,0,5,0,-1,-1
15127,15884,-1,-1,-2,-1,-1,-1,-1,-1
15148,15905,-1,0,1,0,-4,-1,-2,-3
15148,15905,0,0,-2,1,2,2,-1,0
15150,15907,-2,0,-1,-2,4,-1,2,1
15150,15907,-2,0,-2,-1,2,-1,0,1
15171,15927,3,2,-1,-1,-1,1,-2,2
15171,15927,0,-2,0,0,-7,-2,0,0
15172,15929,2,0,-1,-1,-1,-1,0,2
15172,15929,-2,0,0,-2,-2,0,-1,1
15185,15943,-2,-3,0,-2,0,1,1,-1
15185,15943,-3,-1,-2,0,-3,-2,-1,2
15187,15944,0,-1,-3,-1,1,1,2,-1
15187,15944,-3,-1,-1,-1,-3,-2,-1,-1
15208,15965,1,-2,-2,0,-12,0,0,-3
15208,15965,-1,-1,1,0,2,1,-1,-1
15210,15966,0,1,1,-1,1,0,1,-3
15210,15966,-1,-2,-1,1,-8,0,0,0
15231,15987,-4,1,1,0,-6,-2,0,-4
15231,15987,-1,-2,-2,-1,-1,0,-1,0
15232,15989,0,0,-1,-2,-1,-1,0,0
15232,15989,1,1,-1,0,0,-1,-1,-4
15246,16003,-1,-2,0,1,-5,-1,0,1
15246,16003,1,0,0,0,-7,-1,1,0
15247,16004,1,-1,0,1,2,2,-2,1
15247,16004,2,-1,1,0,5,-1,-2,-1
15268,16025,2,0,-1,0,-5,-1,2,4
15268,16025,-1,0,-1,-2,4,-1,1,1
15270,16026,-1,0,-3,-1,4,3,0,6
15270,16026,1,-1,0,0,-4,0,0,1
15291,16047,0,1,0,-1,-4,-1,-2,-1
15291,16047,0,-3,-1,-1,-6,-1,0,-4
15292,16049,1,1,-1,0,-2,-1,-2,-3
15292,16049,0,-1,-1,0,-3,-1,0,1
15305,16062,0,0,1,0,10,1,-1,-1
15305,16062,-2,-1,0,0,-1,-1,1,-2
15312,16068,0,-1,-1,1,-2,-1,-1,-3
15312,16068,-1,1,-1,-2,2,2,1,-1
15328,16085,0,0,-2,-2,-3,-1,-1,-1
15328,16085,-1,2,2,-1,-2,-1,1,0
15330,16086,-1,-1,1,-1,4,1,-1,-3
15330,16086,-2,-1,-1,-1,-3,-1,2,0
15351,16107,1,0,0,-2,0,-2,1,0
15351,16107,-2,-1,-1,-1,2,2,-1,1
15352,16109,0,-1,0,2,-4,-3,0,-1
15352,16109,1,1,0,0,0,3,-2,-1
15365,16122,-1,-1,-1,-1,10,1,1,0
15365,16122,1,-1,0,-2,-1,-1,0,0
15372,16129,-1,0,0,-2,-1,-2,1,1
15372,16129,0,0,-1,1,-4,-2,-1,-1
15388,16145,1,-1,-1,-1,-5,0,-4,0
15388,16145,2,-1,-1,-1,-3,-1,-3,-1
15390,16146,0,-2,-1,0,1,1,-1,-1
15390,16146,0,-2,0,1,1,1,1,0
15410,16167,-3,0,0,0,-4,-1,2,1
15410,16167,0,-2,-1,1,-2,-1,-1,0
15417,16173,2,0,0,-1,4,0,-5,0
15417,16173,-2,-1,1,-1,-3,-1,1,1
15425,16182,-2,0,0,1,1,0,-2,-6
15425,16182,-1,0,0,-2,3,-1,0,-4
15432,16188,1,-1,1,-1,0,-1,1,0
15432,16188,0,-1,-1,-1,1,1,0,1
15448,16204,0,-2,-1,-1,-2,-1,0,3
15448,16204,1,0,-1,0,-1,-1,-1,-1
15450,16207,-1,1,-2,-1,4,1,-1,-3
15450,16207,-1,0,1,0,1,-1,0,-4
15471,16227,1,1,1,-2,-1,-2,0,1
15471,16227,-1,-1,-2,1,8,-1,-1,1
15472,16229,-2,0,0,-3,5,0,-1,1
15472,16229,-1,-2,-1,-1,3,-1,-1,1
15485,16241,-3,-1,-3,1,-4,1,0,0
15485,16241,1,-1,1,-2,5,-1,2,-1
15492,16248,-1,0,1,1,1,1,1,-1
15492,16248,-1,1,1,0,-4,0,-2,0
15508,16265,2,-2,0,1,0,-1,-2,0
15508,16265,0,0,1,-2,-6,-1,0,0
15510,16267,0,-1,-2,0,1,-2,0,0
15510,16267,0,-1,0,0,3,1,-1,-2
15530,16287,-1,1,1,-1,-1,-2,-1,0
15530,16287,-1,0,-1,-1,4,0,-1,1
15532,16289,1,0,0,0,3,0,0,5
15532,16289,2,1,-2,0,-3,-2,-1,2
15545,16301,-2,-1,-1,-1,-3,0,1,-1
15545,16301,-1,-1,0,0,-6,-1,-2,-2
15552,16308,-3,1,-2,-2,-4,3,0,-3
15552,16308,0,0,-1,0,-5,-1,0,-1
15568,16325,0,-1,-1,-1,-11,-1,1,-1
15568,16325,-1,-1,-1,0,-11,-1,0,-1
15570,16327,0,-1,0,1,-3,0,0,-1
15570,16327,0,0,-2,-1,-10,0,1,0
15591,16348,-1,1,-2,0,-7,0,0,-1
15591,16348,0,0,-1,0,-5,-2,0,0
15592,16349,-2,0,0,0,-5,1,0,-2
15592,16349,0,1,1,-1,-7,-1,0,1
15605,16361,2,0,-2,-3,-4,-2,0,1
15605,16361,-1,1,-1,-1,-7,-1,0,-2
15612,16369,0,-1,-1,0,1,-1,1,2
15612,16369,-1,-1,0,-1,0,-3,0,-1
15636,16393,-1,-1,-1,0,-10,0,-3,0
15636,16393,1,0,-2,2,1,0,-1,3
15637,16394,1,1,-1,0,6,-1,0,-1
15637,16394,0,-1,-1,-1,2,0,0,3
15651,16408,0,0,0,1,-1,-1,0,2
15651,16408,0,-4,-1,-1,2,2,1,1
15652,16409,-1,-1,-1,-2,2,0,-1,-3
15652,16409,0,-1,-3,1,2,0,0,-3
15664,16421,-1,0,-1,-1,0,0,0,-4
15664,16421,-2,1,1,0,2,0,0,-2
15673,16429,1,0,0,0,-1,-1,0,2
15673,16429,-3,-2,0,0,2,1,-1,2
15687,16444,2,-1,-1,-1,-2,-2,-2,-1
15687,16444,-1,0,0,-2,-1,0,-1,1
15696,16453,1,-1,-1,0,4,2,1,0
15696,16453,1,0,0,-1,2,1,0,-2
15711,16467,3,-1,1,1,2,1,1,0
15711,16467,3,0,-1,1,4,-1,-1,-1
15712,16469,-1,0,-1,1,-2,-1,-3,-2
15712,16469,0,0,-1,0,1,-1,0,-3
15724,16481,-1,-1,0,-1,1,-1,0,1
15724,16481,-1,0,-1,-1,1,-2,-1,1
15733,16490,-3,-1,-2,-1,1,-1,1,0
15733,16490,-1,-1,-1,-2,1,-1,-1,0
15748,16505,0,0,-2,0,-2,-3,0,0
15748,16505,-1,-1,1,-1,0,-1,2,-1
15750,16506,1,1,-2,1,-1,-1,0,2
15750,16506,-2,-1,0,1,1,0,0,2
15770,16527,1,-2,0,0,-7,1,1,-2
15771,16527,0,-1,0,-2,11,0,-2,0
15772,16529,-2,-1,1,1,9,1,-2,-2
15772,16529,2,-1,1,0,-6,0,-1,0
15784,16541,1,1,-1,1,0,-1,-2,1
15784,16541,2,-3,-1,0,-2,-2,0,-1
15793,16550,-1,0,0,-2,-3,0,1,0
15793,16550,-4,-2,0,-1,-1,-1,-1,-2
15808,16564,-2,0,2,0,8,1,1,1
15808,16564,2,-1,-1,-1,-7,-2,0,-1
15810,16566,-2,0,-2,-2,3,-1,1,-3
15810,16566,3,-1,0,-1,4,-1,0,-2
15831,16587,-2,-2,-1,0,-4,0,0,-1
15831,16587,-2,0,-2,0,7,2,0,0
15832,16589,-1,2,-1,0,8,1,0,2
15832,16589,-2,2,0,-1,-8,0,-1,1
15844,16601,-1,-1,1,0,-1,-1,-1,-3
15844,16601,0,0,0,-2,3,0,1,-4
15853,16609,1,0,0,0,2,1,1,1
15853,16609,2,-1,-2,0,2,-3,2,2
15868,16625,2,-4,-2,-1,6,2,1,0
15868,16625,-2,-2,-1,1,-3,2,0,0
15870,16627,-2,0,0,0,10,-1,-1,0
15870,16627,-2,-1,0,0,7,-1,-4,-2
15891,16647,-2,2,0,-2,-1,-2,-2,1
15891,16647,2,-1,0,-2,1,0,1,2
15892,16649,1,0,0,2,2,0,-1,-2
15892,16649,-2,-1,-1,0,-6,2,0,-2
15914,16670,0,0,0,-3,-1,-1,-1,-2
15914,16670,-1,1,-1,0,0,-1,-2,-4
15915,16671,0,-1,1,0,-1,-1,-1,0
15915,16671,-1,0,-1,0,-6,-2,-1,-1
15928,16685,0,1,-1,1,-3,1,-1,3
15928,16685,0,2,0,-1,-5,-1,-2,-3
15930,16686,2,0,0,-1,7,2,-3,1
15930,16686,2,0,-1,-2,-11,-1,0,0
15951,16707,-1,-1,-1,1,-13,0,-1,1
15951,16707,-1,-2,1,-1,-6,2,0,-2
15952,16709,1,1,0,0,-14,-1,0,-4
15952,16709,0,0,-1,1,-5,-3,1,0
15964,16721,-1,-3,-2,1,-5,-1,3,1
15964,16721,2,-2,-1,2,-12,-1,0,0
15973,16729,1,-1,0,0,-6,-2,-1,0
15973,16729,-1,-1,0,-2,-6,-1,-1,-1
15988,16745,-1,-1,-1,-1,-8,-1,0,-2
15988,16745,-3,-1,-1,0,-2,-2,1,2
15990,16746,0,1,-1,-1,-2,0,1,2
15990,16746,0,2,-1,0,0,0,2,1
16011,16767,0,0,-1,1,-7,0,-1,1
16011,16767,0,-2,0,0,0,0,0,2
16012,16769,-2,1,-1,0,1,1,-2,1
16012,16769,1,-1,0,0,5,0,-2,-2
16024,16780,1,-1,1,1,0,-1,1,-2
16024,16780,-3,1,0,-1,5,-2,0,-1
16033,16790,-2,-2,-1,0,3,-1,0,-1
16033,16790,-3,0,-2,0,5,1,-1,2
16048,16805,0,0,0,-1,3,0,0,1
16048,16805,2,0,0,-1,5,-1,1,0
16050,16807,-1,-2,-1,-1,5,-1,-1,-4
16050,16807,0,1,-1,-1,-3,2,3,-2
16071,16827,-4,0,0,0,1,-1,-1,0
16071,16827,-2,1,0,-1,-1,-1,0,3
16072,16828,-3,-2,0,-1,-6,0,-1,-1
16072,16828,-2,-2,-1,0,2,-2,-1,0
16084,16841,0,2,0,0,-4,0,-1,-1
16084,16841,2,0,-1,0,-4,-1,0,-3
16093,16850,2,-2,0,0,5,0,1,1
16093,16850,0,-3,0,-1,3,1,-1,4
16108,16865,2,-1,1,-3,-9,-1,-3,1
16108,16865,0,1,1,0,7,-1,-1,-2
16110,16867,2,2,-2,0,0,0,-2,-1
16110,16867,0,-1,-1,1,7,-3,0,0
16131,16888,-1,0,-2,-1,-3,-1,1,-4
16131,16888,-4,0,-1,-3,6,1,-1,-2
16132,16889,-1,2,-1,1,6,0,0,-3
16132,16889,0,0,0,-3,0,1,0,0
16160,16917,2,-1,1,1,-1,-2,3,2
16161,16917,0,1,-1,1,-1,0,0,0
16162,16918,-2,0,0,-2,0,0,1,1
16162,16918,-2,-1,1,1,-2,1,-2,-1
16167,16924,0,-1,0,-3,8,1,0,-1
16167,16924,5,0,0,0,-1,-2,-1,3
16174,16930,0,1,0,0,0,2,-2,1
16174,16930,-2,0,-1,1,4,-2,0,-2
16198,16954,-2,-2,-1,-2,-2,0,-3,-2
16198,16954,-3,-1,-1,-2,3,-1,-2,-3
16199,16956,1,1,0,-2,10,1,0,1
16200,16956,2,-1,1,1,-2,0,2,2
16213,16969,-1,0,0,0,-5,0,0,-1
16213,16969,-2,-2,-2,-2,2,1,-2,-2
16215,16971,-1,0,0,1,-1,-2,1,-1
16215,16971,-2,-1,-1,-1,-4,-2,0,-1
16228,16985,0,2,-2,1,22,0,3,0
16228,16985,1,1,1,1,2,2,2,1
16229,16986,-1,0,-2,-1,2,1,1,-1
16229,16986,-1,1,0,0,3,1,-1,1
16251,17007,1,-2,1,2,-7,-2,-2,0
16251,17007,1,0,1,-1,4,1,-1,0
16252,17009,0,-2,-2,-2,7,1,0,-2
16252,17009,2,-1,0,-1,1,1,0,-6
16272,17029,0,0,0,-2,-7,-2,1,-2
16272,17029,-2,0,-2,-1,3,0,-1,2
16281,17038,-2,-1,1,-1,-3,-1,-2,4
16281,17038,1,1,-1,-1,-1,1,-1,0
16296,17052,1,-1,-1,0,6,2,-2,1
16296,17052,1,-3,0,0,-2,0,1,1
16297,17053,-2,1,-2,1,-5,1,0,-1
16297,17053,-1,-1,-1,-3,-9,-1,-2,-2
16311,17067,-3,1,1,1,-15,1,-2,-1
16311,17067,-1,-2,-2,-1,-7,-2,0,-3
16312,17069,-2,-1,-2,0,-8,0,-1,-2
16312,17069,-1,-1,2,0,-10,-2,-2,-2
16333,17090,1,0,-2,-1,-10,0,-1,-4
16333,17090,-1,-3,-1,0,-10,-1,0,-1
16335,17091,2,0,0,-2,-3,-2,0,1
16335,17091,0,1,-1,0,-4,-2,1,0
16347,17105,-1,-1,-1,-1,1,0,2,4
16347,17105,-1,0,0,-1,-6,-1,-1,1
16354,17111,0,-1,1,1,-2,-2,-1,-1
16354,17111,-1,1,2,0,-3,-1,-1,-2
16371,17127,0,-3,-1,-1,-8,0,-1,-1
16371,17127,-1,0,-1,-1,-3,-1,-3,-3
16372,17129,0,-1,-1,1,-5,0,-1,0
16372,17129,1,-1,-3,-2,4,-1,0,0
16393,17150,-1,-4,0,-2,-7,-2,0,-1
16393,17150,-1,-1,1,0,3,-1,1,-1
16395,17151,-1,1,1,-1,1,-2,-2,2
16395,17151,-2,0,0,1,-2,-1,-1,2
16416,17172,-1,2,1,-1,2,-3,1,-1
16416,17172,0,0,-1,-1,5,2,0,2
16417,17174,1,-2,0,0,1,-1,1,-3
16417,17174,1,1,-2,-1,-3,-1,0,1
16431,17187,0,0,0,0,3,2,-1,0
16431,17187,-2,1,0,-1,-1,-1,-1,-2
16432,17189,0,0,-1,0,10,2,1,-2
16432,17189,-2,-1,-1,0,0,-3,-1,-1
16453,17210,-1,-1,2,0,5,-2,0,1
16453,17210,1,2,-1,-1,4,1,0,1
16455,17211,-2,-1,-1,0,1,1,-1,2
16455,17211,0,-1,-1,0,2,1,-3,0
16467,17224,2,1,0,-1,0,-3,-2,-2
16467,17224,1,1,1,2,1,1,0,-1
16474,17231,1,0,0,0,1,-1,1,0
16474,17231,-1,0,0,0,0,0,0,-3
16491,17247,-1,0,-1,-1,-2,-3,-1,-2
16491,17247,-3,-1,-1,-1,5,-1,0,-2
16492,17249,1,1,-2,0,-5,0,0,3
16492,17249,-3,-1,-1,-1,-2,-1,0,1
16513,17269,2,-1,-1,-1,-4,0,0,1
16513,17269,-2,0,0,0,2,0,0,-3
16515,17271,-1,1,1,-1,-1,1,-3,-4
16515,17271,0,-1,0,0,0,0,-1,0
16527,17284,-1,0,0,-1,0,0,-2,0
16527,17284,1,-1,0,-1,-8,-1,-1,1
16534,17291,-1,0,0,-2,1,0,1,-1
16534,17291,0,0,1,-1,2,1,2,-2
16558,17315,-1,-2,1,1,-12,0,1,0
16558,17315,3,0,-2,-1,1,-1,0,2
16560,17316,-1,-1,0,-3,6,1,-1,2
16560,17316,-1,-2,1,0,-3,0,0,-2
16573,17330,0,0,0,1,-3,-1,0,1
16573,17330,-3,-1,-1,-1,8,3,-2,1
16575,17332,0,1,-1,1,-7,0,-1,1
16575,17332,-1,1,-1,-1,-3,-1,1,0
16587,17344,1,0,1,0,1,-1,0,-3
16587,17344,-2,-2,-1,1,-3,0,1,-1
16602,17359,0,0,0,-2,2,-1,1,-1
16602,17359,-1,0,-1,-2,-3,2,0,-1
16610,17367,-2,-1,1,-3,-2,-2,-2,0
16611,17367,1,-1,0,-2,2,0,-1,0
16612,17368,1,2,-2,1,6,0,0,0
16612,17368,0,0,-1,-1,-6,0,0,1
16633,17390,-1,3,-2,0,-2,0,-1,-1
16633,17390,0,0,0,1,8,0,-1,-1
16635,17391,0,-1,1,0,-2,-1,0,1
16635,17391,-1,0,-1,-1,3,1,0,2
16647,17404,1,0,-2,-2,-5,0,-1,1
16647,17404,-3,-1,0,-1,-4,-1,-1,-2
16656,17412,-3,-1,0,-1,0,-1,0,-4
16656,17412,2,-1,0,0,-1,-2,0,-3
16671,17427,0,-2,-2,-1,-5,-1,1,-2
16671,17427,2,0,-1,-1,-4,-3,0,0
16672,17429,0,0,0,1,-5,0,-1,-1
16672,17429,-2,0,-1,0,-7,-2,-2,1
16693,17450,-3,-2,-1,1,-9,0,-2,2
16693,17450,-1,0,0,-1,2,0,2,2
16695,17451,2,-2,-1,0,-3,-2,1,-3
16695,17451,0,1,0,-1,-4,-1,-2,-4
16716,17473,1,0,-2,-1,-9,-1,1,-3
16716,17473,0,0,-1,-1,-11,-2,-1,-3
16717,17474,1,-1,1,0,-4,-1,0,0
16717,17474,-1,-2,1,1,-5,0,-1,0
16731,17487,-1,0,1,-1,0,1,-2,4
16731,17487,-1,1,-2,-2,-6,1,-1,3
16732,17488,-2,-1,0,-2,4,0,0,2
16732,17488,-1,-2,-2,0,-4,0,0,-2
16753,17510,-1,-1,-2,-2,-6,0,1,-2
16753,17510,0,-3,0,-2,6,2,-1,1
16755,17511,-1,-1,-2,0,0,0,-2,3
16755,17511,-1,0,0,2,-4,-1,-1,2
16767,17524,-2,-3,0,0,0,0,-1,-1
16767,17524,1,-1,-1,-2,0,-2,-1,-1
16776,17533,0,-2,-1,-2,-8,0,-1,-1
16776,17533,0,1,-3,-1,0,-2,0,0
16791,17547,1,1,-1,0,12,1,-1,0
16791,17547,1,2,0,0,1,1,-1,-3
16792,17548,-1,0,0,0,4,2,0,-3
16792,17548,2,-2,-2,-1,4,0,1,0
16813,17569,-1,-2,1,-1,-3,-2,0,-2
16813,17569,-1,1,0,1,5,-1,-1,1
16815,17572,-1,1,-1,1,4,-2,0,0
16815,17572,0,0,-1,-1,-2,1,1,0
16827,17584,-1,-2,0,0,-5,0,0,0
16827,17584,0,-4,0,0,6,-2,1,1
16836,17593,-1,1,-1,-2,2,-3,-1,0
16836,17593,-1,-1,0,-2,6,1,-1,-2
16851,17607,1,0,-1,0,3,0,0,0
16851,17607,-3,0,0,1,-1,0,-1,0
16852,17609,-1,-1,0,-1,6,3,-1,-1
16852,17609,0,-1,0,-1,2,-2,-1,0
16881,17637,0,2,-1,-2,-4,-1,-1,-4
16881,17637,0,1,-2,1,-3,1,-2,0
16882,17639,-2,-2,0,1,-6,-3,-2,0
16882,17639,1,1,-1,0,-2,0,0,2
16887,17643,-2,-1,0,-1,0,0,2,2
16887,17643,-2,0,0,-1,1,-1,0,1
16896,17652,-2,2,0,-1,1,-1,0,0
16896,17652,-1,-1,1,1,-1,-2,1,-2
16911,17668,-1,-2,-2,0,-5,-1,-2,-1
16911,17668,2,1,-1,-2,-3,1,-1,-2
16912,17669,2,1,-2,0,3,1,0,-1
16912,17669,1,-1,0,-3,-6,1,-2,-3
16933,17690,-1,0,-1,0,0,0,-2,2
16933,17690,-1,-3,0,-2,-3,-1,0,-2
16935,17691,1,-2,1,-1,-5,-1,2,-4
16935,17691,0,1,0,1,-2,-3,0,-1
16947,17704,0,-1,-2,1,-4,0,-1,0
16947,17704,1,-2,-1,1,5,-1,-1,1
16956,17712,-2,0,0,-1,4,1,0,2
16956,17712,0,1,-1,0,1,1,0,0
16971,17727,1,0,1,-2,5,0,0,-3
16971,17727,-1,2,2,0,4,-2,0,-3
16972,17728,0,0,2,0,1,0,-2,3
16972,17728,-2,1,-1,-1,0,-1,-2,1
16993,17749,-1,-2,0,2,-2,0,0,0
16993,17749,-1,0,-2,-1,-1,2,-2,-3
16995,17751,-2,-2,-2,-1,-2,0,0,-2
16995,17751,1,-2,1,-1,-1,-1,0,-2
17007,17764,1,-1,0,0,-1,-1,2,1
17007,17764,1,-1,-2,-1,3,1,1,0
17031,17787,2,0,-1,1,5,2,1,3
17031,17787,-2,-1,-2,0,5,3,1,5
17032,17788,1,-2,2,-1,-6,-1,-1,2
17032,17788,-1,0,-1,1,1,-1,-1,0
17034,17791,-1,2,-1,-1,2,-2,-2,-1
17034,17791,-2,-1,-1,-2,5,-2,0,0
17054,17810,1,0,0,-2,-6,-2,1,-1
17054,17810,0,1,-1,-1,2,0,0,0
17055,17812,1,-1,2,0,2,-2,-1,-2
17055,17812,1,1,0,0,-5,1,0,-1
17076,17832,-2,0,-2,-1,-6,-1,-3,-1
17076,17832,-1,-2,0,1,-10,-2,0,0
17077,17834,-2,-3,-1,-2,-9,-1,0,-1
17077,17834,-1,-1,0,-2,-8,1,0,1
17091,17847,1,-2,0,0,-6,0,0,-2
17091,17847,-2,0,1,-1,-7,2,-1,0
17092,17849,-2,1,-2,-1,2,0,-2,0
17092,17849,2,-1,-1,1,2,-2,-2,-2
17113,17870,-1,-1,-1,-3,-8,-1,-1,-3
17114,17870,0,0,-2,-2,1,1,1,1
17115,17872,1,2,1,0,1,1,1,1
17115,17872,-2,0,0,0,-2,0,1,-2
17136,17892,-1,-3,-2,-1,1,0,-1,1
17136,17892,3,0,0,0,2,0,2,1
17137,17893,0,0,-2,0,-7,-1,1,0
17137,17893,-1,0,0,1,-2,-1,1,0
17150,17907,0,0,1,-1,1,-2,1,2
17150,17907,-3,-2,1,-2,-8,-1,-2,1
17158,17915,0,0,0,0,2,-1,-2,0
17158,17915,2,-1,0,-1,0,0,0,-1
17173,17930,0,0,-2,0,-1,-1,0,-2
17173,17930,0,1,-2,0,10,-1,-1,-4
17175,17931,1,-2,-1,-2,5,0,0,-3
17175,17931,-2,0,-1,-1,-3,0,-3,-3
17195,17953,-2,1,-1,1,-4,1,1,-1
17196,17953,2,-2,-1,-1,5,0,-1,0
17197,17954,0,-1,0,0,1,-2,0,1
17197,17954,0,1,0,-1,1,-2,1,0
17218,17975,-1,-1,0,0,7,-1,1,1
17218,17975,-3,1,-2,2,-2,1,1,0
17220,17976,-1,-1,-1,0,1,2,0,1
17220,17976,1,-2,0,-1,2,1,0,2
17233,17989,-1,-1,-1,-1,-4,-1,0,-2
17233,17989,1,1,0,-2,0,-1,-1,-3
17234,17991,-1,0,-1,-2,-2,-2,-1,-1
17235,17991,0,1,-3,1,-1,0,-1,2
17256,18013,1,-2,-1,-1,0,-1,-2,0
17256,18013,0,1,0,-3,-1,0,-3,0
17257,18014,0,-1,-1,2,1,0,-1,1
17257,18014,-1,-1,-2,-2,4,-3,-1,2
17270,18026,-2,0,-1,-2,1,0,-1,0
17270,18026,0,0,0,0,0,1,1,-3
17277,18033,0,1,-1,-1,-3,1,-2,-2
17277,18033,1,-1,0,-1,-5,0,-1,-2
17301,18057,1,1,-2,0,-2,3,-1,0
17301,18057,-3,-1,0,-2,-2,-1,-1,0
17302,18058,-2,-2,0,0,-1,-1,2,-1
17302,18058,-1,-1,-3,1,0,-1,1,-1
17316,18073,-1,0,1,0,-6,0,2,2
17316,18073,0,0,-2,-1,2,1,0,2
17317,18074,-1,-1,-1,-1,3,1,0,-2
17317,18074,-1,1,0,0,-2,1,-2,-2
17330,18087,0,4,1,1,15,-2,-3,-1
17330,18087,0,1,-1,2,5,-1,0,2
17337,18094,-2,1,-1,-1,0,-2,2,2
17337,18094,0,-3,0,-1,2,-2,-2,1
17368,18125,0,-1,-1,-1,-6,-1,1,0
17368,18125,2,0,1,0,5,0,0,-1
17370,18126,1,0,0,-2,0,1,0,0
17370,18126,-2,2,1,1,2,0,0,-2
17376,18132,1,-1,-2,1,-3,1,-2,-3
17376,18132,-2,1,0,0,1,1,-2,-3
17377,18133,1,-2,0,-1,2,1,1,-1
17377,18133,2,1,0,-1,0,-1,-1,1
17406,18163,-1,-1,-1,-1,20,2,1,0
17406,18163,2,0,-1,-1,1,-1,-1,-1
17407,18164,3,1,0,-1,6,-1,0,-2
17407,18164,-1,1,1,1,-2,0,0,0
17413,18170,-1,-3,0,-1,-7,-3,-2,0
17413,18170,-2,0,-1,1,2,-1,1,-4
17415,18171,-1,0,1,0,7,1,0,1
17415,18171,1,-1,-1,1,-5,2,1,0
17436,18193,1,0,0,0,-10,-1,0,0
17436,18193,-2,-2,0,1,-3,-2,-1,1
17437,18194,-3,0,-1,-1,-7,-5,-2,-1
17437,18194,-2,1,-1,-1,-5,0,-1,1
17450,18207,-1,-1,-2,-1,-4,0,-2,1
17450,18207,0,-1,-2,-2,-9,2,1,0
17457,18214,-1,-2,0,0,-8,0,1,1
17457,18214,1,-1,-1,0,0,-1,0,-1
17473,18229,0,-1,0,1,-7,-2,-2,3
17473,18229,1,0,1,1,7,-2,1,2
17475,18231,0,-1,0,1,-3,1,-1,-1
17475,18231,-1,-2,0,-1,-7,1,-2,-1
17495,18252,2,0,1,1,-4,-2,0,-2
17495,18252,2,-1,-2,0,-1,-1,-2,1
17497,18253,-2,2,-1,1,-3,1,-1,1
17497,18253,-1,1,1,-1,0,-1,1,-1
17510,18266,1,-1,1,-2,-4,1,-1,-1
17510,18266,2,-1,1,0,-3,-1,0,0
17524,18281,-1,-2,-1,-1,2,-1,-1,0
17524,18281,-1,0,-1,-1,0,1,1,1
17533,18290,-4,-1,-1,2,-5,-1,-1,-2
17533,18290,-2,-1,0,-1,-2,0,2,-1
17535,18291,1,0,-1,0,4,-1,-1,-1
17535,18291,1,-1,0,-2,2,-1,-1,-1
17555,18312,1,-1,-1,-1,1,0,0,-1
17556,18312,-1,-1,0,-2,3,0,0,0
17557,18314,0,-1,-3,-1,2,-1,-1,0
17557,18314,-1,0,-2,1,1,0,-1,-1
17569,18326,-2,-1,0,0,-2,-1,0,-1
17569,18326,-1,1,-1,-1,4,1,0,-2
17585,18343,0,-1,0,1,-1,1,0,-1
17585,18343,0,0,0,-1,6,-1,2,-1
17593,18350,1,-1,-1,1,-4,-2,-1,-2
17593,18350,-1,2,-1,0,1,-1,-1,1
17595,18351,-1,2,-1,-1,6,0,-2,0
17595,18351,2,-2,-1,0,-4,0,-3,0
17615,18372,-1,-3,0,-1,-1,-1,2,0
17616,18372,-2,2,0,0,6,0,-1,0
17617,18374,0,2,-1,-1,3,-2,0,-2
17617,18374,-2,-2,-1,-1,-3,1,-1,1
17629,18386,-1,-1,2,-1,-4,2,0,-1
17629,18386,0,-1,0,-1,-1,0,-1,1
17638,18395,1,0,-2,1,-2,0,1,1
17638,18395,-2,-1,-1,1,1,-2,2,0
17661,18417,0,0,2,-3,-1,0,0,-2
17661,18417,-3,-2,-1,-1,-6,-3,-1,-2
17662,18419,-1,-1,1,2,-3,0,-2,-2
17662,18419,-2,-1,0,0,-1,-1,0,-3
17676,18432,0,0,-2,0,-4,1,0,-1
17676,18432,1,0,-1,0,-3,-1,-2,0
17677,18433,1,1,-2,0,1,0,1,1
17677,18433,2,1,0,1,-3,1,3,1
17698,18454,-2,-1,0,0,1,0,0,-2
17698,18454,-1,0,1,-2,3,1,-1,-1
17700,18456,-1,-1,-1,-2,-3,0,-2,2
17700,18456,-1,1,0,1,-3,0,-3,2
17713,18470,3,0,-1,0,-1,-2,0,-1
17713,18470,-1,-3,-1,0,2,1,0,1
17715,18471,-1,1,1,0,8,-1,2,-1
17715,18471,-2,-2,0,-3,0,-1,-1,-1
17736,18493,-1,-2,-1,-2,8,0,-1,0
17736,18493,0,2,-2,0,2,0,0,-2
17738,18494,-1,-1,0,1,9,-1,0,-1
17738,18494,0,1,-2,2,0,-2,2,1
17749,18505,-5,0,0,0,-4,1,-2,1
17749,18505,0,1,0,-1,3,0,-1,2
17758,18515,-2,0,1,-2,2,0,0,1
17758,18515,1,2,-1,0,-3,0,1,-3
17773,18530,1,0,1,-1,11,1,-1,0
17773,18530,1,1,0,2,0,1,2,-2
17775,18532,-1,0,-1,1,10,1,1,-2
17775,18532,0,-1,0,-1,6,0,-1,-1
17796,18553,0,0,-2,-1,-2,0,-1,0
17796,18553,0,-1,2,-2,4,1,0,-3
17797,18554,0,-1,-2,-1,-5,0,-1,-2
17797,18554,-2,-1,1,-2,-10,-1,-1,0
17809,18566,2,-1,1,1,-8,-2,0,0
17809,18566,1,1,1,-1,-7,0,0,0
17818,18575,-1,0,0,-1,-10,1,1,-2
17818,18575,-1,-2,0,-1,-4,0,1,-1
17833,18590,0,-3,-1,-1,-4,-1,1,0
17833,18590,0,2,-1,0,-10,-1,-1,0
17834,18591,1,-1,-1,-1,-1,0,-2,1
17835,18591,-1,-1,0,-1,-7,-3,-1,0
17856,18613,-1,0,-2,0,-8,-2,0,-3
17856,18613,1,0,0,2,-5,2,-1,-2
17857,18614,-2,-1,-1,-2,-11,-2,-2,-1
17857,18614,2,-1,-1,0,-6,1,-1,-1
17869,18625,1,0,0,-1,-3,-1,0,1
17869,18625,0,0,-1,-1,-2,-1,0,0
17884,18641,2,-3,0,0,0,-1,0,2
17884,18641,0,-2,0,-2,-2,-2,-1,4
17893,18650,0,0,1,-2,-2,1,0,-1
17893,18650,-1,0,0,-1,-1,-2,1,2
17895,18651,-2,-1,0,0,0,-1,0,-1
17895,18651,0,0,-1,-1,1,1,1,1
17916,18673,0,1,-3,0,3,1,0,3
17916,18673,-3,0,0,1,0,2,1,-2
17917,18674,1,1,0,0,3,-2,0,-1
17917,18674,-2,-1,-1,-1,-4,-2,2,-1
17929,18686,-1,0,-2,-1,0,-2,-1,-3
17929,18686,-2,0,-1,0,7,2,-1,-2
17938,18695,-1,0,-1,-2,3,-1,-3,0
17938,18695,-2,-1,1,0,3,-4,1,-4
17953,18709,0,-2,2,-1,-1,1,-1,0
17953,18709,-1,-1,-1,1,3,0,1,2
17967,18724,0,0,-1,-1,1,3,0,0
17967,18724,0,-2,-1,1,-3,2,0,0
17976,18732,-3,0,-2,-1,1,-1,-2,-3
17976,18732,-2,0,3,-1,7,0,0,1
17977,18734,-3,1,1,-1,6,-1,0,0
17977,18734,-1,-1,-2,-1,-1,-2,-1,0
17989,18746,0,0,0,-1,-1,2,1,2
17989,18746,-1,0,-2,-1,1,0,0,2
17998,18754,-1,0,-1,0,0,-1,-1,2
17998,18754,1,-1,-1,-1,-2,0,-1,0
18013,18769,-1,1,0,0,-1,-1,-1,-3
18013,18769,1,0,-1,1,0,-1,-2,-2
18015,18771,2,-2,1,0,-3,0,2,-2
18015,18771,0,-1,-1,0,-1,-2,-1,-2
18035,18792,1,-2,-1,0,2,-1,1,0
18035,18792,0,1,-1,-3,6,1,1,2
18037,18793,-3,1,-1,0,3,-2,-1,0
18037,18793,-1,0,-1,-1,-2,0,-2,-1
18058,18815,-2,1,-1,1,7,-1,-2,-2
18058,18815,1,-1,-1,-1,1,0,-1,-1
18059,18816,0,-1,2,-1,0,1,2,-1
18060,18816,-1,-3,1,0,1,-2,-2,2
18073,18829,-1,1,-1,1,2,1,2,5
18073,18829,2,1,-1,-1,-4,-1,-1,0
18075,18830,1,-2,0,-2,5,1,0,0
18075,18830,2,-2,0,1,5,0,0,-3
18096,18852,1,1,0,-1,0,-1,0,-2
18096,18852,-1,2,-2,1,4,0,-1,-1
18097,18854,-1,0,0,0,7,-2,0,-3
18097,18854,-2,-3,0,0,0,-1,-2,-1
18118,18875,1,1,0,0,3,-1,0,-1
18118,18875,-1,0,-3,0,-1,1,2,0
18119,18876,-2,-1,-1,0,-8,-1,0,-1
18119,18876,0,-1,0,-1,0,1,-2,0
18141,18897,-2,1,0,1,9,0,-4,1
18141,18897,-2,0,0,-2,-1,-1,-1,0
18142,18899,1,-1,0,0,0,-1,0,-1
18142,18899,0,-1,1,-1,-4,0,1,-2
18156,18912,-1,-3,-1,-1,-3,2,-2,0
18156,18912,3,2,0,0,1,-1,1,-2
18157,18914,0,-2,-3,0,-5,-2,-1,2
18157,18914,0,0,-1,-2,-5,-3,0,-1
18178,18934,-2,-2,-1,0,-1,1,2,0
18178,18934,-2,-2,-1,0,3,-3,-1,2
18180,18936,-1,-1,-1,2,-8,-1,-1,-1
18180,18936,-1,0,-2,1,-8,-4,-1,1
18192,18949,-2,1,-1,0,14,3,-1,-3
18192,18949,1,-2,0,0,-3,1,0,-1
18199,18956,3,1,-1,-1,-2,-2,-1,0
18199,18956,-1,-2,-1,-2,-7,-1,-1,2
18215,18971,-1,-1,-1,1,-9,0,0,0
18215,18971,-1,-1,1,0,-3,0,0,-1
18223,18980,0,0,1,-2,-7,0,-1,-3
18223,18980,0,0,1,-1,-5,-1,-3,-2
18238,18994,-2,-2,-1,-1,-7,-2,1,-1
18238,18994,0,0,1,0,-8,1,1,-1
18240,18997,-2,0,-1,3,-6,1,-1,-3
18240,18997,-2,-2,-2,0,0,0,0,-2
18252,19009,1,2,-2,0,11,1,-2,-2
18252,19009,-1,-1,-3,0,-1,0,1,1
18259,19016,0,-2,1,-1,-3,-4,1,2
18259,19016,2,0,0,-2,-3,-3,-1,-4
18276,19033,1,0,0,0,-7,-2,-1,0
18276,19033,0,0,0,0,-1,-1,-1,-2
18277,19034,1,0,-1,-2,2,2,-2,2
18277,19034,0,0,-1,1,3,0,1,0
18298,19055,1,-3,1,-1,-6,-1,0,2
18298,19055,0,0,-1,0,2,1,-3,1
18300,19056,-3,-1,0,0,2,-3,1,1
18300,19056,-2,-2,-1,-1,3,1,0,2
18312,19069,-2,2,-1,1,2,0,2,4
18312,19069,-1,-1,-2,-1,-1,2,0,2
18319,19076,1,-3,-1,2,1,0,-1,-3
18319,19076,-1,-3,-1,-2,-2,-2,0,-4
18335,19092,2,0,-2,-1,-1,3,0,-1
18335,19092,-1,1,0,-1,-3,1,-1,3
18337,19093,0,1,-1,0,0,0,0,1
18337,19093,1,-1,2,1,1,0,-1,2
18358,19115,-3,-1,1,-1,-2,-2,-1,-2
18358,19115,1,0,-2,-2,-4,0,-2,-3
18359,19116,1,-1,-3,-2,2,0,-1,-2
18359,19116,1,0,0,-1,-2,1,2,-2
18372,19129,2,0,-2,0,4,0,-1,-1
18372,19129,0,0,-1,2,-1,0,1,-1
18387,19143,-1,1,2,1,1,-2,0,-2
18387,19143,-1,1,0,2,2,-2,0,2
18396,19153,1,0,-2,-4,-6,-1,0,1
18396,19153,-2,-1,0,-1,-7,-3,0,3
18398,19154,0,-1,1,-3,-2,-1,2,2
18398,19154,1,-2,-2,0,-2,-2,1,-1
18418,19175,-1,1,1,0,2,1,0,0
18418,19175,-3,0,-1,-1,4,0,1,-2
18420,19176,-1,0,-1,-2,-6,1,-2,-4
18420,19176,-2,-1,0,0,0,-1,-1,0
18432,19189,1,0,0,-2,3,1,1,-1
18432,19189,1,-1,0,0,-3,-1,0,-1
18447,19204,0,0,0,-2,2,0,0,1
18447,19204,2,-2,0,-4,-1,-2,-3,-1
18456,19212,0,-1,-1,1,-2,-1,-1,-3
18456,19212,-1,-1,2,0,-4,2,0,-2
18457,19214,1,-1,0,1,6,-1,0,0
18457,19214,2,-1,-1,0,0,1,0,1
18478,19235,-3,2,1,-2,1,1,2,4
18478,19235,-1,1,-2,-1,1,0,0,1
18479,19236,-1,0,-1,2,-2,1,0,-1
18480,19236,0,1,0,-1,-2,0,0,-2
18501,19257,0,-1,1,1,0,-1,0,-2
18501,19257,0,-1,-1,0,1,0,-2,-3
18502,19258,-1,0,-2,-1,0,-1,-1,-1
18502,19258,0,1,2,-2,4,1,-1,0
18516,19273,0,0,-3,-1,1,0,-2,1
18516,19273,-1,-2,2,-2,2,0,1,0
18517,19274,0,0,-1,0,3,-2,2,1
18517,19274,-2,1,0,0,-3,1,1,1
18546,19302,-2,-1,-1,-2,-2,-1,0,0
18546,19302,1,0,1,-1,3,0,-1,1
18547,19303,1,0,-1,-1,-1,1,-3,-1
18547,19303,1,1,-2,0,-2,0,0,-1
18552,19309,-1,0,1,0,-1,-1,-2,-3
18552,19309,0,-1,0,0,-2,-2,-1,-2
18561,19318,1,-1,-1,-2,-4,0,0,0
18561,19318,-1,-1,-1,1,2,-2,0,0
18576,19333,-2,1,-1,0,-10,-1,1,3
18576,19333,0,1,-2,-1,-1,-1,0,1
18577,19334,-1,-1,0,0,-6,-1,-2,-1
18577,19334,-2,-1,0,0,-4,-2,0,-4
18598,19355,1,-4,-3,1,-11,1,-1,-3
18598,19355,2,-1,0,-2,-2,1,-1,1
18600,19357,0,-1,0,-2,0,-1,0,0
18600,19357,-2,0,-2,-2,-7,-2,0,2
18612,19369,0,-1,0,2,-3,0,-1,-2
18612,19369,-1,0,-1,0,-4,-1,0,-3
18621,19377,0,-1,-3,2,-5,-1,0,-2
18621,19377,0,-2,-1,-2,-6,1,-1,0
18636,19393,-1,0,-2,-2,6,1,0,0
18636,19393,-2,-3,-1,-1,-5,-1,-1,1
18637,19394,1,1,1,-2,3,0,-1,2
18637,19394,0,-1,1,0,-2,0,-1,0
18659,19415,0,1,-1,-2,-5,-2,0,-2
18659,19415,-2,1,-1,-1,7,0,1,1
18660,19417,-1,0,1,0,7,0,-3,2
18660,19417,1,-1,-2,0,-9,-2,0,0
18672,19429,2,-1,0,-1,2,0,-1,0
18672,19429,0,-2,0,1,4,0,1,0
18681,19438,-1,0,0,-2,3,1,0,-2
18681,19438,0,0,0,-3,1,1,-3,-1
18696,19452,3,0,-1,0,9,-1,-1,0
18696,19452,1,-1,-1,0,-1,0,-1,-2
18697,19454,2,-1,0,0,8,1,1,-2
18697,19454,2,0,0,2,4,1,1,-2
18718,19474,-1,-1,0,-1,-2,-2,1,-3
18718,19474,-1,2,0,-1,0,0,0,2
18720,19476,-3,0,-1,0,-2,1,0,3
18720,19476,-2,0,-1,1,-4,0,-2,2
18732,19488,-1,-1,-2,-1,0,-2,-3,1
18732,19488,-1,0,-3,1,2,-1,-1,-1
18741,19497,-2,-1,0,0,2,-1,0,0
18741,19497,-1,-4,-1,0,2,2,2,-1
18756,19512,-1,-1,-1,0,1,1,-1,-3
18756,19512,0,-1,-2,-2,4,0,-1,-4
18757,19513,-1,1,-3,0,6,0,-1,-1
18757,19513,-1,1,-2,0,-3,-3,-1,1
18778,19535,-2,-2,2,-2,-3,-1,1,2
18778,19535,-1,-1,0,-2,-2,-1,2,0
18780,19537,1,1,1,-1,-7,0,0,-3
18780,19537,1,1,-1,-1,1,-2,-1,2
18792,19548,0,0,-2,1,-7,0,1,-1
18792,19548,-1,-1,0,1,-7,1,-1,1
18801,19557,-2,0,-1,-3,0,-2,-2,-1
18801,19557,0,-2,0,0,-1,1,-1,-1
18815,19572,-2,1,-2,-1,-7,1,0,2
18815,19572,0,-1,-1,1,3,-2,-2,-2
18822,19578,-2,0,0,0,5,0,0,-3
18822,19578,-1,-3,0,-1,-1,1,0,-4
18838,19595,1,1,-1,0,0,0,-1,2
18838,19595,0,2,-1,0,-2,0,0,2
18840,19596,2,0,0,2,0,-1,0,2
18840,19596,-1,0,2,-1,2,-1,-1,2
18852,19608,0,-2,0,-1,-3,1,-2,2
18852,19608,2,-2,1,-1,2,-1,0,-1
18861,19617,0,-1,0,0,1,0,0,-1
18861,19617,-3,0,-1,-2,1,0,0,-1
18876,19632,0,0,-1,0,9,0,1,-4
18876,19632,-1,-1,-1,-1,3,0,0,2
