pc_t_ms,t_ms,ax_raw,ay_raw,az_raw,gx_raw,gy_raw,gz_raw,mad_roll_mdeg,mad_pitch_mdeg,mad_yaw_mdeg,mad_us,ekf_roll_mdeg,ekf_pitch_mdeg,ekf_yaw_mdeg,traceP_1e6,ekf_us,bx_uradps,by_uradps,bz_uradps
221,24101,17328,-300,-4116,-533,-43,42,13259,1066,6,8,13362,964,4,4004695,165,11,11,-2
223,24111,17328,-254,-4144,-533,-42,41,13576,650,1,8,13406,890,49,3983287,165,-1185,-1957,483
225,24121,17342,-236,-4122,-535,-40,43,13119,889,8,8,13394,843,98,3936742,165,-215,-5347,1273
226,24131,17336,-252,-4114,-531,-37,45,13602,723,2,8,13381,832,105,3850750,165,1480,-6497,1521
227,24141,17326,-300,-4012,-537,-38,37,13128,926,9,8,13291,864,45,3720575,165,18180,5,-270
230,24151,17388,-294,-4062,-541,-38,41,13522,1235,1,8,13249,882,16,3566254,165,25056,4008,-1321
240,24161,17338,-328,-4072,-535,-37,38,13078,973,10,8,13230,926,-61,3383495,165,26073,13553,-3577
250,24172,17406,-278,-4022,-545,-43,38,12744,569,14,8,13166,924,2,3201466,165,37603,11150,-3213
260,24182,17340,-268,-4126,-537,-43,41,13208,781,9,8,13203,913,-2,3022397,165,23962,7353,-2098
271,24192,17372,-294,-4104,-540,-38,49,13440,1234,5,8,13213,924,-1,2865244,165,18526,8657,-2315
281,24202,17380,-280,-4094,-549,-40,47,13193,788,8,8,13215,922,-8,2728548,165,15960,7146,-1917
291,24212,17340,-228,-4164,-549,-38,48,13682,700,1,8,13274,881,-47,2610756,165,2176,-1581,368
301,24222,17334,-280,-4222,-541,-45,52,13699,1202,0,8,13367,885,70,2513020,165,-15290,-771,414
311,24232,17344,-224,-4164,-534,-41,48,13508,739,4,8,13403,849,-52,2431074,165,-20069,-6989,2016
322,24243,17398,-192,-4174,-540,-40,51,13438,237,4,8,13430,798,-218,2365738,165,-22654,-14589,3935
332,24253,17326,-224,-4162,-543,-48,40,13512,749,3,8,13457,774,-242,2305915,165,-24731,-16766,4493
342,24264,17348,-172,-4238,-538,-34,48,13885,407,0,8,13521,722,-269,2257968,166,-32188,-22737,6031
353,24274,17328,-226,-4188,-530,-36,47,13538,778,4,8,13549,712,-231,2216209,165,-33451,-22291,5913
363,24285,17326,-228,-4164,-530,-45,40,13293,334,7,8,13559,705,-232,2182616,166,-32049,-21466,5699
374,24295,17358,-234,-4150,-534,-42,39,13466,808,6,8,13555,702,-242,2155784,165,-29082,-20181,5367
384,24305,17346,-250,-4106,-538,-37,45,12974,792,13,8,13528,709,-257,2133095,165,-23755,-17885,4774
395,24316,17370,-244,-4144,-537,-43,42,13466,781,6,8,13522,712,-263,2114446,165,-21413,-16346,4384
405,24326,17382,-306,-4026,-533,-42,35,13023,990,13,8,13456,746,-270,2098340,165,-12717,-11566,3161
416,24337,17358,-272,-4086,-542,-45,41,13460,761,6,8,13430,759,-278,2083799,165,-9129,-9420,2620
426,24347,17316,-298,-4076,-536,-40,36,13104,1089,13,8,13406,785,-341,2070519,165,-6149,-6273,1885
436,24358,17322,-316,-4086,-536,-41,46,13549,898,5,8,13390,816,-442,2057769,166,-4165,-2959,1149
464,24368,17374,-292,-4090,-540,-36,43,13083,957,12,8,13372,831,-444,2044522,165,-2288,-1435,760
465,24378,17418,-302,-4090,-544,-44,48,13547,990,4,8,13353,848,-447,2033175,165,-423,101,369
466,24388,17344,-284,-4132,-546,-45,48,13148,779,10,8,13360,857,-522,2022368,165,-954,833,270
477,24398,17332,-278,-4122,-541,-42,47,13554,982,3,8,13362,862,-555,2010933,165,-1140,1222,210
487,24408,17342,-244,-4138,-536,-40,48,13296,601,7,8,13370,853,-543,2000198,165,-1717,442,396
497,24418,17352,-264,-4184,-534,-45,45,13624,911,3,8,13393,853,-614,1991531,165,-3443,403,499
507,24428,17382,-228,-4210,-543,-43,44,13601,458,3,8,13420,839,-656,1982181,165,-5331,-605,820
517,24438,17348,-242,-4128,-540,-38,41,13346,833,6,8,13418,832,-640,1972205,165,-5007,-1118,934
527,24448,17336,-164,-4198,-535,-43,49,13644,490,2,8,13442,798,-635,1963990,165,-6539,-3478,1555
537,24459,17342,-208,-4176,-537,-43,50,13410,885,5,8,13456,782,-634,1956956,165,-7241,-4420,1804
548,24469,17358,-208,-4144,-535,-44,52,13445,429,5,8,13457,769,-641,1950795,165,-6999,-5199,2032
558,24479,17318,-226,-4104,-543,-47,43,13283,856,7,8,13448,761,-659,1944814,165,-6077,-5454,2142
568,24490,17346,-242,-4172,-539,-40,40,13704,717,1,8,13459,759,-651,1939274,167,-6542,-5338,2088
578,24500,17328,-280,-4092,-542,-41,39,13298,895,6,8,13445,770,-670,1934437,165,-5420,-4443,1886
589,24510,17354,-280,-4114,-546,-38,39,13733,938,0,8,13437,780,-683,1929846,165,-4757,-3686,1705
599,24520,17374,-284,-4046,-540,-44,43,13298,920,6,8,13409,790,-692,1925465,165,-2887,-2952,1541
609,24531,17352,-278,-4150,-544,-48,50,13726,843,0,8,13415,798,-718,1921306,166,-3093,-2404,1433
620,24541,17364,-250,-4194,-542,-41,44,13311,726,4,8,13431,797,-733,1917121,165,-3912,-2374,1443
630,24551,17348,-322,-4082,-544,-44,46,13213,1155,5,8,13416,817,-738,1912879,165,-2939,-1215,1138
640,24562,17334,-264,-4116,-533,-37,47,13400,757,3,8,13412,819,-733,1908947,166,-2646,-1068,1089
650,24572,17342,-292,-4116,-532,-38,47,13286,1178,5,8,13408,829,-741,1905651,165,-2357,-535,959
660,24582,17342,-292,-4150,-539,-42,45,13534,831,1,8,13414,838,-766,1902575,165,-2565,-63,881
670,24592,17316,-284,-4042,-530,-42,39,13131,916,7,8,13392,844,-717,1899008,165,-1352,237,692
680,24602,17330,-270,-4134,-531,-44,41,13533,848,2,8,13395,846,-726,1897157,165,-1449,334,687
690,24612,17362,-284,-4154,-538,-40,42,13215,1104,7,8,13400,851,-747,1895563,165,-1676,584,670
700,24622,17346,-274,-4212,-539,-39,43,13576,916,1,8,13420,854,-795,1893838,165,-2588,709,760
710,24632,17358,-268,-4148,-544,-41,43,13206,764,6,8,13423,854,-799,1891303,165,-2652,732,762
720,24642,17306,-256,-4110,-543,-43,46,13579,910,0,8,13419,852,-790,1888824,165,-2417,617,763
730,24652,17326,-216,-4204,-540,-51,49,13687,519,0,8,13437,841,-814,1887125,165,-3149,115,976
740,24662,17346,-300,-4190,-550,-42,44,13592,911,0,8,13449,850,-812,1885250,165,-3599,496,882
750,24672,17350,-264,-4174,-546,-43,48,13309,635,2,8,13457,850,-819,1883737,165,-3832,492,907
761,24682,17336,-230,-4130,-537,-43,44,13569,933,0,8,13455,842,-833,1882296,165,-3647,166,1021
771,24692,17344,-246,-4174,-537,-42,37,13467,546,0,8,13462,838,-841,1880945,165,-3863,25,1090
781,24702,17380,-240,-4232,-537,-36,37,13738,822,-2,8,13479,833,-847,1879831,165,-4466,-146,1186
791,24712,17364,-186,-4172,-534,-35,42,13456,543,1,8,13483,817,-896,1878786,165,-4542,-738,1490
801,24723,17330,-238,-4116,-541,-45,40,13299,908,3,8,13477,813,-924,1876611,166,-4196,-863,1580
811,24733,17346,-280,-4118,-537,-44,42,13680,851,-2,8,13472,818,-926,1874157,165,-3866,-646,1504
822,24743,17354,-266,-4072,-539,-38,40,13294,854,3,8,13456,819,-951,1872075,169,-3177,-550,1501
832,24753,17350,-290,-4108,-539,-37,47,13419,1222,1,8,13449,826,-959,1869707,165,-2837,-285,1424
842,24764,17348,-288,-4084,-536,-42,51,13224,887,4,8,13437,833,-971,1867521,166,-2343,-57,1358
852,24774,17384,-294,-4048,-546,-43,47,12886,1050,9,8,13418,840,-990,1865439,166,-1581,181,1278
862,24784,17362,-330,-4154,-542,-49,47,13260,1056,2,8,13422,853,-1012,1863266,165,-1657,670,1229
873,24794,17336,-266,-4178,-550,-41,48,13570,840,-3,8,13431,854,-1017,1860798,165,-1937,681,1270
883,24804,17344,-262,-4130,-544,-51,48,13199,844,1,8,13430,854,-1017,1858618,165,-1852,651,1263
893,24815,17380,-278,-4166,-547,-48,44,13559,904,-4,8,13435,856,-1020,1856990,166,-1948,728,1262
904,24825,17368,-314,-4196,-537,-43,47,13639,1271,-5,8,13444,865,-1023,1855663,165,-2236,1029,1238
914,24835,17326,-262,-4176,-542,-42,54,13562,899,-4,8,13452,865,-1029,1854473,165,-2446,992,1296
924,24846,17328,-310,-4126,-534,-39,48,13244,1082,0,8,13450,874,-1019,1853386,165,-2327,1230,1182
935,24856,17286,-222,-4210,-543,-45,48,13529,847,-4,8,13466,865,-1040,1852825,165,-2788,961,1402
945,24866,17412,-266,-4178,-532,-37,44,13175,886,1,8,13468,865,-1042,1852403,165,-2832,939,1421
955,24876,17374,-256,-4154,-529,-43,43,13518,803,-2,8,13469,863,-1048,1852032,165,-2789,865,1452
965,24887,17330,-250,-4162,-541,-46,48,13164,795,1,8,13473,860,-1056,1851675,166,-2848,769,1512
975,24897,17396,-286,-4124,-541,-34,47,13449,996,-2,8,13467,863,-1057,1851566,165,-2619,846,1440
985,24907,17316,-298,-4114,-537,-40,41,13127,855,2,8,13462,869,-1052,1851513,165,-2440,992,1340
995,24917,17356,-234,-4112,-537,-39,46,13435,696,-1,8,13456,863,-1066,1851925,165,-2219,800,1376
1006,24927,17364,-262,-4034,-535,-38,43,13113,827,3,8,13436,862,-1089,1852285,165,-1607,746,1310
1016,24938,17358,-306,-4076,-545,-42,47,13301,1117,0,8,13425,869,-1109,1852330,165,-1255,923,1245
1027,24948,17332,-294,-4082,-551,-48,44,13206,782,0,8,13417,874,-1124,1852114,165,-981,1032,1192
1037,24958,17334,-254,-4054,-539,-45,52,12943,999,3,8,13404,872,-1126,1851768,165,-590,916,1094
1047,24968,17332,-242,-4158,-541,-44,45,13251,874,-1,8,13409,867,-1108,1851694,165,-717,772,1088
1057,24978,17366,-232,-4134,-538,-40,53,13495,646,-4,8,13409,862,-1095,1852448,165,-691,585,1058
1067,24989,17404,-192,-4142,-544,-44,46,13181,555,-1,8,13408,850,-1071,1853775,166,-663,231,1009
1077,24999,17382,-230,-4134,-538,-48,45,13422,778,-4,8,13408,844,-1065,1855676,165,-622,71,992
1087,25009,17332,-236,-4108,-549,-48,45,13111,710,-1,8,13405,840,-1071,1857668,165,-519,-49,993
1097,25019,17348,-238,-4170,-545,-44,37,13427,751,-5,8,13411,835,-1042,1859785,165,-666,-162,942
1108,25029,17350,-254,-4164,-540,-41,45,13663,971,-9,8,13415,834,-1023,1862554,165,-775,-196,909
1118,25039,17332,-304,-4080,-537,-43,41,13345,976,-3,8,13407,841,-1066,1865663,165,-552,9,974
1128,25049,17332,-304,-4080,-537,-43,41,13037,981,1,8,13400,848,-1106,1868173,165,-343,199,1031
1138,25059,17370,-260,-4102,-543,-41,42,13306,822,-2,8,13394,847,-1121,1870296,165,-206,183,1037
1148,25069,17346,-300,-4068,-540,-42,38,13114,1074,0,8,13385,852,-1163,1872263,165,34,342,1096
1158,25079,17308,-310,-4186,-545,-41,42,13414,1026,-5,8,13395,859,-1159,1873406,165,-215,540,1174
1168,25090,17334,-300,-4106,-547,-37,46,13158,848,-2,9,13392,865,-1174,1875063,165,-133,669,1192
1178,25100,17362,-282,-4092,-542,-39,39,13425,995,-6,8,13386,866,-1187,1876618,165,13,711,1171
1188,25110,17354,-270,-4152,-539,-38,42,13493,700,-7,8,13389,866,-1183,1878038,165,-62,716,1190
1199,25120,17302,-268,-4160,-542,-42,47,13541,1001,-8,8,13395,867,-1176,1879677,165,-208,720,1226
1209,25130,17394,-234,-4172,-530,-42,45,13478,703,-7,8,13399,862,-1167,1881978,165,-303,597,1231
1219,25140,17352,-238,-4154,-537,-36,41,13405,996,-5,8,13402,858,-1161,1884502,165,-370,492,1234
1229,25151,17386,-236,-4162,-546,-38,41,13474,705,-7,8,13405,853,-1157,1887346,166,-431,389,1239
1239,25161,17378,-248,-4094,-540,-40,48,13205,817,-4,8,13398,851,-1179,1890370,165,-281,330,1247
1249,25171,17316,-240,-4048,-537,-36,44,12990,617,-1,8,13387,847,-1216,1893016,165,-29,247,1261
1260,25181,17314,-284,-4080,-534,-45,47,13184,831,-3,8,13381,851,-1240,1894996,165,101,325,1299
1270,25191,17364,-258,-4116,-541,-50,45,13465,825,-7,8,13380,850,-1246,1896764,165,146,301,1294
1280,25201,17322,-292,-4162,-533,-41,42,13570,1090,-8,8,13385,854,-1232,1898527,165,21,395,1316
1290,25211,17326,-228,-4134,-543,-39,43,13460,830,-7,8,13387,848,-1226,1900835,165,-12,270,1285
1300,25221,17398,-218,-4110,-538,-43,45,13243,661,-4,8,13383,842,-1240,1903579,165,72,127,1267
1351,25231,17370,-216,-4138,-539,-46,44,13507,715,-7,8,13384,836,-1235,1906110,165,56,-19,1222
1353,25241,17346,-236,-4120,-541,-40,47,13249,791,-4,8,13383,833,-1240,1908845,165,76,-93,1213
1354,25252,17304,-238,-4154,-536,-41,48,13515,764,-8,8,13388,830,-1214,1911574,165,-29,-172,1142
1356,25262,17342,-286,-4060,-531,-45,47,13269,877,-3,8,13379,834,-1260,1915080,165,159,-64,1259
1358,25272,17360,-254,-4210,-534,-50,43,13529,832,-7,8,13390,833,-1210,1917871,165,-51,-105,1153
1361,25282,17382,-290,-4178,-536,-49,48,13491,1099,-6,8,13396,837,-1182,1921811,165,-152,-35,1108
1371,25292,17354,-212,-4130,-536,-53,49,13426,838,-5,8,13396,831,-1196,1926283,165,-144,-164,1125
1381,25303,17314,-278,-4114,-536,-46,47,13232,1020,-2,8,13395,834,-1198,1930601,165,-117,-108,1133
1391,25313,17368,-232,-4140,-539,-44,42,13374,795,-4,8,13396,830,-1203,1935109,165,-126,-180,1135
1402,25323,17350,-244,-4142,-540,-49,33,13625,737,-7,8,13398,827,-1201,1939573,165,-150,-219,1125
1412,25333,17356,-268,-4160,-539,-47,42,13429,902,-4,8,13402,828,-1182,1944167,165,-212,-202,1083
1422,25344,17356,-250,-4134,-538,-39,43,13350,656,-3,8,13402,827,-1186,1949088,166,-208,-220,1091
1432,25354,17370,-278,-4058,-535,-39,44,13185,850,-1,8,13391,829,-1230,1954042,165,-15,-147,1190
1442,25364,17358,-284,-4016,-544,-39,47,12955,941,1,8,13376,833,-1293,1958448,165,265,-50,1329
1452,25374,17330,-248,-4110,-541,-40,43,13180,857,-1,8,13375,831,-1299,1961641,165,291,-79,1324
1463,25384,17362,-300,-4078,-540,-45,43,13261,1087,-3,8,13368,836,-1327,1964968,165,407,43,1426
1473,25394,17368,-286,-4102,-541,-48,48,13300,849,-4,8,13366,839,-1342,1967825,169,466,116,1484
1483,25404,17350,-280,-4080,-540,-50,50,13111,993,-1,8,13361,842,-1361,1970462,165,562,170,1530
1493,25415,17378,-296,-4140,-544,-48,49,13341,958,-5,8,13362,847,-1365,1972901,165,537,262,1605
1503,25425,17340,-264,-4092,-546,-40,42,13224,755,-4,8,13359,846,-1373,1975348,166,596,262,1597
1513,25435,17368,-312,-4220,-540,-43,47,13422,867,-7,8,13370,852,-1359,1977963,165,402,398,1730
1523,25445,17330,-288,-4174,-540,-39,44,13626,966,-10,8,13376,855,-1351,1981095,165,287,466,1802
1534,25455,17364,-308,-4168,-540,-40,42,13404,1003,-7,8,13381,860,-1341,1984761,165,209,571,1866
1544,25465,17366,-260,-4120,-539,-44,45,13330,788,-6,8,13379,859,-1345,1988807,165,232,549,1849
1554,25475,17338,-278,-4130,-547,-38,41,13451,975,-8,8,13380,861,-1343,1992851,165,220,574,1860
1564,25485,17346,-260,-4146,-543,-34,47,13436,754,-8,8,13382,860,-1346,1997114,165,180,564,1886
1574,25495,17330,-256,-4164,-541,-40,47,13595,902,-11,8,13386,859,-1349,2001459,165,98,552,1939
1584,25506,17342,-292,-4092,-545,-42,42,13384,926,-8,8,13382,862,-1343,2005894,166,167,591,1886
1594,25516,17350,-270,-4152,-535,-38,42,13549,793,-10,8,13385,862,-1342,2010638,166,121,602,1918
1604,25526,17350,-238,-4168,-541,-38,45,13377,672,-8,8,13389,858,-1354,2015576,165,48,556,1983
1614,25536,17358,-228,-4172,-541,-41,39,13564,752,-10,8,13394,853,-1370,2020314,165,-24,495,2055
1624,25546,17358,-222,-4068,-541,-44,46,13360,731,-8,8,13386,848,-1408,2024940,165,97,412,2071
1634,25556,17356,-254,-4104,-540,-33,43,13246,900,-6,8,13383,847,-1421,2028725,165,145,392,2074
1644,25566,17366,-250,-4038,-539,-35,38,13075,794,-4,8,13371,845,-1455,2032415,165,316,365,2076
1655,25576,17350,-232,-4124,-530,-43,38,13269,761,-6,8,13371,841,-1461,2035344,165,316,300,2052
1665,25586,17366,-274,-4112,-535,-42,43,13349,943,-6,8,13369,842,-1466,2038343,165,344,326,2068
1675,25596,17396,-286,-4112,-541,-44,48,13179,853,-4,8,13367,845,-1471,2041519,165,383,373,2094
1685,25606,17336,-248,-4078,-539,-39,52,13318,719,-6,8,13361,844,-1487,2044595,165,456,341,2080
1695,25617,17334,-260,-4184,-534,-39,46,13489,798,-8,8,13369,844,-1465,2047472,166,341,331,2057
1705,25627,17344,-244,-4092,-534,-40,44,13304,786,-5,8,13365,842,-1480,2051236,165,392,296,2051
1715,25637,17342,-250,-4126,-541,-42,45,13483,825,-8,8,13365,840,-1481,2054781,165,382,271,2036
1725,25647,17310,-298,-4138,-536,-43,38,13431,1003,-7,8,13368,844,-1465,2058455,165,340,343,2055
1735,25657,17300,-262,-4098,-539,-38,44,13329,849,-5,8,13366,844,-1471,2062831,165,363,343,2057
1746,25667,17386,-284,-4110,-541,-38,47,13250,1012,-4,8,13364,847,-1474,2067368,165,396,381,2074
1756,25677,17394,-264,-4106,-548,-41,48,13283,835,-5,8,13360,847,-1482,2072082,165,437,379,2071
1766,25687,17352,-228,-4226,-536,-37,47,13450,793,-8,8,13371,843,-1461,2076693,165,273,312,2035
1776,25698,17354,-286,-4212,-537,-40,44,13593,885,-10,8,13381,846,-1426,2081963,166,139,344,2008
1786,25708,17328,-306,-4142,-541,-44,44,13450,979,-7,8,13383,851,-1398,2088053,165,107,406,1966
1796,25718,17366,-280,-4108,-537,-36,42,13305,897,-5,8,13380,852,-1394,2094595,165,143,423,1937
1806,25728,17354,-268,-4086,-535,-39,43,13166,809,-3,8,13375,853,-1400,2101259,165,207,421,1908
1816,25738,17366,-284,-4138,-536,-41,47,13314,873,-5,8,13376,855,-1392,2107961,165,194,449,1907
1827,25748,17354,-262,-4152,-543,-47,55,13470,838,-8,8,13379,855,-1393,2114817,165,158,447,1930
1837,25758,17394,-230,-4114,-542,-47,46,13337,755,-6,8,13377,851,-1415,2121737,165,191,393,1940
1847,25768,17376,-228,-4156,-540,-34,51,13487,723,-8,8,13379,848,-1429,2128499,165,157,342,1966
1857,25778,17300,-250,-4146,-539,-34,46,13466,879,-8,8,13382,846,-1429,2135106,165,110,322,1974
1867,25788,17360,-262,-4106,-537,-32,45,13320,844,-6,8,13379,846,-1438,2141828,165,144,321,1981
1877,25799,17404,-246,-4142,-529,-39,48,13432,748,-6,8,13379,845,-1447,2148548,166,141,298,1995
1887,25809,17406,-204,-4070,-538,-42,41,13295,700,-5,8,13371,838,-1501,2155198,165,238,229,2071
1897,25819,17328,-234,-4118,-543,-41,49,13413,785,-6,8,13371,835,-1514,2160755,165,239,189,2073
1907,25829,17322,-220,-4164,-546,-42,47,13527,699,-9,8,13376,831,-1507,2166151,165,172,114,2008
1917,25839,17350,-254,-4144,-539,-37,43,13438,809,-7,8,13378,830,-1499,2171924,165,147,100,1978
1927,25849,17334,-276,-4160,-538,-33,46,13519,921,-9,8,13381,832,-1469,2177999,165,94,106,1894
1937,25859,17340,-276,-4194,-540,-35,45,13641,866,-11,8,13388,834,-1423,2184751,165,0,101,1766
1948,25869,17332,-264,-4138,-540,-47,45,13511,855,-9,8,13390,834,-1415,2192099,165,-17,101,1740
1958,25879,17364,-226,-4168,-533,-33,45,13497,723,-8,8,13393,831,-1425,2199636,165,-61,61,1770
1968,25889,17320,-236,-4154,-533,-37,45,13461,849,-7,8,13396,828,-1429,2207050,165,-101,32,1778
1978,25899,17358,-272,-4100,-544,-45,45,13337,867,-6,8,13393,830,-1437,2214549,165,-56,56,1801
1988,25909,17374,-270,-4150,-547,-47,54,13459,866,-8,8,13394,831,-1424,2222020,165,-73,60,1755
1998,25919,17356,-300,-4174,-542,-51,46,13527,968,-10,8,13400,836,-1371,2229654,165,-127,78,1599
2008,25929,17350,-246,-4120,-540,-42,46,13443,880,-9,8,13398,834,-1391,2237473,165,-109,71,1653
2018,25940,17384,-280,-4102,-533,-46,49,13328,893,-6,8,13395,837,-1391,2245354,167,-61,94,1642
2028,25950,17352,-284,-4104,-534,-47,42,13242,970,-5,8,13392,839,-1384,2253247,167,-26,119,1615
2038,25960,17402,-308,-4084,-547,-37,42,13140,1019,-4,8,13386,843,-1372,2261276,167,43,165,1565
2048,25970,17338,-292,-4058,-540,-41,42,13182,914,-4,8,13379,846,-1370,2269328,165,128,196,1530
2058,25980,17368,-278,-4138,-545,-41,43,13290,903,-7,8,13379,848,-1365,2277452,165,119,214,1531
2068,25990,17344,-242,-4108,-549,-48,41,13319,798,-8,8,13378,845,-1378,2285579,165,141,185,1525
2078,26000,17366,-230,-4064,-532,-43,42,13223,759,-6,8,13371,841,-1400,2293836,165,219,138,1504
2089,26010,17358,-250,-4120,-543,-38,46,13319,791,-8,8,13370,840,-1405,2302206,165,226,120,1495
2099,26020,17346,-228,-4116,-543,-43,42,13364,701,-8,8,13369,836,-1415,2310628,165,234,72,1468
2109,26030,17340,-238,-4122,-537,-42,42,13375,798,-8,8,13369,834,-1419,2318997,165,233,39,1447
2118,26040,17360,-236,-4120,-541,-44,37,13326,716,-8,8,13369,831,-1427,2327397,169,240,7,1432
2128,26050,17350,-240,-4072,-541,-45,39,13243,754,-7,8,13364,828,-1454,2335740,165,300,-4,1477
2138,26060,17362,-258,-4100,-537,-46,45,13289,833,-7,8,13361,828,-1466,2343986,165,328,3,1512
2148,26070,17344,-296,-4186,-539,-35,43,13369,866,-8,8,13368,832,-1436,2352073,165,254,43,1490
2158,26080,17332,-288,-4170,-542,-44,46,13449,896,-10,8,13373,835,-1413,2360619,165,196,74,1473
2169,26090,17298,-348,-4124,-544,-40,41,13434,981,-10,8,13374,844,-1382,2369371,165,184,187,1492
2179,26100,17342,-320,-4146,-539,-38,42,13454,1066,-10,7,13376,850,-1363,2378127,165,159,260,1515
2189,26111,17384,-330,-4146,-547,-41,43,13371,1049,-10,7,13377,856,-1340,2386796,166,146,333,1520
2199,26121,17360,-278,-4092,-541,-42,49,13322,979,-9,7,13373,858,-1328,2395114,165,185,326,1434
2209,26131,17346,-262,-4142,-547,-44,44,13374,912,-11,7,13375,857,-1336,2403090,165,166,330,1476
2220,26141,17372,-288,-4134,-541,-40,44,13432,974,-12,7,13376,859,-1330,2411380,165,163,353,1480
2230,26151,17394,-300,-4136,-539,-41,42,13351,955,-10,7,13375,863,-1319,2419618,165,163,386,1475
2240,26162,17334,-254,-4126,-536,-46,48,13374,872,-11,7,13376,862,-1327,2427607,166,159,373,1489
2250,26172,17328,-260,-4114,-541,-43,48,13335,796,-10,7,13376,861,-1330,2435862,165,166,361,1474
2260,26182,17346,-270,-4070,-544,-42,45,13260,837,-10,7,13370,861,-1316,2444248,165,221,332,1343
2271,26192,17348,-206,-4122,-541,-46,43,13305,763,-11,7,13370,855,-1331,2452384,165,222,254,1303
2281,26202,17340,-234,-4098,-541,-42,42,13252,695,-10,7,13368,851,-1338,2460963,165,245,206,1249
2291,26212,17370,-234,-4116,-544,-38,47,13321,744,-11,7,13366,848,-1344,2469760,165,256,163,1209
2301,26223,17374,-234,-4146,-544,-49,42,13405,749,-13,7,13368,845,-1349,2478734,166,239,126,1188
2311,26233,17362,-222,-4142,-549,-42,48,13433,667,-14,7,13370,841,-1356,2487818,165,223,76,1158
2321,26243,17372,-226,-4098,-549,-43,43,13354,695,-14,7,13367,837,-1374,2496952,165,253,37,1152
2331,26253,17358,-184,-4162,-549,-43,46,13420,641,-15,7,13370,829,-1375,2506326,165,215,-66,1047
2342,26263,17376,-236,-4180,-537,-50,42,13478,704,-15,7,13376,827,-1356,2515803,165,167,-112,946
2352,26273,17370,-240,-4214,-537,-46,40,13557,735,-16,7,13384,824,-1315,2525077,165,85,-170,777
2362,26283,17378,-212,-4150,-538,-47,44,13481,701,-15,7,13386,820,-1333,2533460,165,72,-209,804
2372,26294,17344,-246,-4170,-538,-40,44,13514,780,-15,7,13390,819,-1308,2542296,166,30,-244,695
2382,26304,17354,-236,-4180,-540,-43,41,13580,726,-16,7,13395,816,-1287,2550575,166,-17,-287,593
2392,26314,17332,-286,-4122,-537,-43,47,13519,785,-15,7,13395,820,-1264,2558255,165,-12,-271,523
2402,26324,17320,-234,-4140,-539,-39,47,13441,752,-14,7,13396,818,-1272,2565168,165,-27,-289,538
2413,26334,17332,-256,-4118,-531,-43,47,13379,810,-13,7,13395,818,-1278,2572544,165,-17,-282,563
2423,26344,17328,-260,-4120,-538,-39,39,13363,895,-13,7,13394,818,-1278,2580320,165,-11,-275,567
2433,26355,17398,-300,-4178,-539,-41,41,13439,931,-14,7,13398,822,-1222,2588388,166,-44,-278,379
2443,26365,17366,-292,-4074,-542,-46,44,13356,933,-13,7,13392,825,-1226,2594046,165,13,-237,406
2453,26375,17320,-300,-4038,-541,-42,50,13272,946,-12,7,13383,830,-1235,2599912,165,95,-181,456
2463,26385,17352,-302,-4094,-539,-41,52,13282,1032,-12,7,13380,835,-1227,2606656,165,126,-139,460
2474,26395,17374,-308,-4092,-537,-41,47,13234,961,-11,7,13376,840,-1219,2613471,165,163,-93,465
2484,26405,17378,-314,-4074,-542,-48,44,13178,1025,-11,7,13371,845,-1212,2619916,165,214,-45,464
2494,26415,17390,-292,-4114,-543,-35,52,13248,978,-12,7,13368,849,-1209,2626318,165,231,-16,476
2504,26426,17314,-288,-4178,-543,-39,45,13330,965,-14,7,13374,851,-1220,2632473,166,176,40,620
2514,26436,17336,-282,-4132,-537,-41,43,13396,914,-15,7,13375,853,-1219,2639325,166,168,63,650
2524,26446,17326,-278,-4216,-538,-44,55,13479,909,-17,7,13385,855,-1244,2646327,166,87,125,864
2534,26456,17336,-242,-4130,-541,-43,49,13436,837,-16,7,13385,853,-1258,2654459,166,84,111,899
2544,26466,17322,-234,-4086,-534,-39,42,13361,799,-15,7,13381,849,-1267,2663191,166,115,74,864
2554,26476,17374,-240,-4094,-541,-44,48,13282,776,-14,7,13378,847,-1273,2672379,166,148,42,825
2565,26486,17342,-242,-4164,-537,-40,42,13364,776,-15,7,13381,845,-1282,2681804,166,115,31,861
2574,26496,17352,-206,-4204,-534,-52,33,13441,741,-15,7,13389,839,-1304,2691514,166,53,0,938
2584,26505,17318,-230,-4226,-540,-39,40,13522,740,-16,7,13399,835,-1305,2701429,165,-32,-20,967
2594,26516,17342,-258,-4146,-536,-47,42,13467,804,-15,7,13401,835,-1303,2711589,166,-45,-23,964
2604,26526,17352,-242,-4184,-541,-43,43,13547,779,-16,7,13406,833,-1307,2721774,166,-84,-32,989
2614,26536,17366,-274,-4126,-537,-51,42,13474,819,-15,7,13406,834,-1297,2732003,165,-74,-30,947
2624,26546,17362,-266,-4096,-544,-43,44,13392,833,-14,7,13402,835,-1303,2742150,165,-40,-23,954
2634,26556,17338,-254,-4086,-543,-39,48,13309,823,-14,7,13397,834,-1321,2752485,165,-2,-18,998
2644,26566,17384,-320,-4116,-542,-44,44,13314,908,-14,7,13395,840,-1286,2763009,165,15,5,888
2654,26576,17374,-276,-4084,-545,-51,44,13236,887,-13,7,13391,841,-1283,2772940,165,57,8,852
2664,26586,17368,-328,-4150,-541,-45,42,13299,939,-14,7,13393,847,-1251,2782892,166,45,49,797
2674,26595,17324,-298,-4106,-534,-43,51,13371,981,-15,7,13391,851,-1231,2792034,165,59,63,729
2684,26605,17364,-306,-4056,-537,-43,50,13289,982,-14,7,13383,856,-1194,2800497,165,118,55,552
2694,26615,17336,-322,-4142,-546,-52,47,13368,1010,-16,7,13386,861,-1189,2807326,165,105,116,613
2704,26626,17316,-274,-4130,-539,-44,44,13397,929,-17,7,13387,862,-1192,2814096,166,99,128,643
2714,26636,17374,-260,-4144,-543,-44,42,13413,846,-17,7,13388,861,-1200,2821270,166,92,128,672
2724,26646,17414,-232,-4058,-539,-43,40,13335,819,-16,7,13380,857,-1173,2829094,166,153,42,432
2734,26656,17338,-232,-4178,-539,-45,47,13414,792,-17,7,13385,854,-1196,2835426,166,113,37,530
2744,26666,17306,-252,-4178,-534,-50,48,13497,802,-18,7,13392,853,-1215,2843230,166,69,53,643
2754,26676,17354,-266,-4134,-539,-51,47,13425,841,-17,7,13393,853,-1215,2852069,166,67,54,646
2764,26685,17364,-296,-4116,-544,-42,45,13372,905,-17,7,13391,856,-1200,2861065,169,80,65,593
2773,26695,17318,-268,-4162,-542,-42,47,13451,881,-18,7,13395,857,-1211,2869389,165,52,85,672
2783,26705,17354,-250,-4172,-540,-45,41,13505,817,-19,7,13399,855,-1230,2878389,165,25,94,768
2793,26715,17338,-254,-4116,-535,-51,43,13424,817,-18,7,13398,854,-1235,2888185,165,35,84,765
2803,26725,17374,-330,-4136,-535,-43,42,13412,900,-17,7,13398,860,-1199,2898278,165,36,110,671
2813,26735,17342,-284,-4136,-536,-47,43,13423,984,-17,7,13399,861,-1192,2907123,165,32,120,660
2823,26745,17364,-278,-4154,-537,-32,45,13449,904,-17,7,13400,862,-1194,2915809,165,20,135,691
2833,26755,17372,-282,-4142,-537,-43,42,13366,904,-16,7,13400,863,-1188,2924726,165,17,141,678
2843,26765,17376,-276,-4108,-536,-39,51,13287,882,-15,7,13397,865,-1171,2933462,165,38,123,580
2853,26775,17334,-236,-4058,-543,-36,42,13230,819,-14,7,13390,861,-1156,2941280,165,88,59,417
2863,26785,17358,-252,-4098,-539,-40,42,13310,804,-15,7,13387,860,-1149,2948439,165,111,29,342
2873,26795,17366,-292,-4102,-532,-38,43,13297,888,-15,7,13384,862,-1137,2955536,165,132,35,292
2883,26805,17336,-228,-4108,-544,-41,47,13315,805,-15,7,13382,858,-1135,2961932,165,143,-12,218
2893,26815,17352,-294,-4190,-548,-41,46,13389,844,-17,7,13387,861,-1148,2968667,165,102,37,348
2903,26825,17398,-278,-4112,-545,-43,40,13315,881,-16,7,13385,861,-1139,2976431,165,121,31,294
2913,26835,17316,-290,-4130,-535,-39,42,13388,920,-17,7,13386,863,-1139,2983530,165,114,55,328
2923,26845,17360,-226,-4164,-542,-41,46,13427,845,-18,7,13389,860,-1159,2991036,165,93,39,391
2933,26855,17338,-254,-4130,-541,-37,44,13368,786,-17,7,13389,858,-1163,2999731,165,91,31,398
2943,26865,17352,-212,-4140,-545,-32,42,13403,710,-18,7,13389,853,-1182,3008864,165,85,-1,425
2953,26875,17354,-252,-4152,-541,-43,47,13442,784,-19,7,13391,852,-1186,3018956,165,71,-7,442
2963,26885,17350,-236,-4182,-543,-44,41,13522,764,-20,7,13396,849,-1195,3029303,165,37,-19,480
2973,26895,17330,-308,-4124,-538,-41,38,13479,836,-19,7,13395,853,-1171,3040072,165,38,-3,414
2983,26905,17370,-316,-4094,-535,-46,38,13415,888,-18,7,13392,857,-1145,3049937,165,65,9,320
2993,26915,17352,-306,-4144,-528,-37,44,13429,971,-18,7,13393,861,-1131,3058505,166,57,34,310
3003,26924,17360,-294,-4038,-533,-38,44,13347,965,-16,7,13383,863,-1094,3066498,165,117,3,103
3012,26934,17372,-298,-4086,-528,-37,39,13265,959,-14,7,13379,866,-1074,3072096,165,147,2,14
3023,26944,17362,-254,-4090,-533,-39,46,13259,876,-13,7,13375,865,-1055,3076175,165,171,-38,-113
3033,26954,17326,-228,-4104,-540,-40,46,13295,798,-14,7,13373,861,-1042,3079100,165,179,-95,-232
3043,26965,17362,-264,-4202,-532,-44,55,13378,812,-15,7,13380,862,-1058,3081636,166,134,-71,-114
3053,26975,17382,-260,-4142,-543,-41,45,13442,867,-16,7,13381,861,-1060,3086278,165,130,-76,-111
3063,26985,17346,-240,-4080,-540,-41,44,13365,832,-15,7,13376,858,-1054,3091168,165,159,-116,-199
3074,26995,17338,-230,-4150,-533,-41,36,13427,771,-15,7,13379,854,-1052,3096074,165,141,-148,-228
3084,27005,17340,-236,-4162,-538,-48,39,13511,755,-16,7,13383,851,-1050,3101285,165,116,-172,-244
3094,27016,17402,-238,-4176,-538,-44,45,13433,785,-15,7,13386,849,-1049,3107065,165,95,-194,-258
3104,27026,17382,-246,-4164,-539,-41,47,13516,791,-16,7,13388,847,-1047,3112818,165,78,-209,-269
3115,27036,17328,-232,-4090,-539,-41,44,13434,775,-15,7,13385,844,-1069,3118354,165,101,-219,-220
3125,27046,17354,-278,-4158,-543,-48,39,13462,857,-16,7,13388,845,-1055,3126361,165,83,-217,-256
3135,27057,17374,-250,-4102,-538,-42,50,13382,833,-15,7,13385,844,-1071,3133413,166,104,-216,-215
3145,27067,17336,-274,-4114,-540,-45,45,13333,905,-14,7,13384,845,-1073,3141913,165,111,-205,-200
3156,27077,17362,-306,-4172,-533,-37,49,13411,939,-15,7,13387,850,-1052,3150912,165,86,-184,-228
3166,27087,17356,-280,-4110,-534,-40,43,13334,905,-13,7,13385,851,-1051,3158490,165,99,-174,-227
3176,27097,17358,-260,-4104,-537,-44,42,13298,826,-13,7,13383,851,-1055,3166303,165,115,-177,-226
3186,27108,17376,-278,-4074,-545,-48,41,13226,872,-12,7,13378,851,-1063,3174876,165,152,-166,-213
3197,27118,17326,-262,-4126,-540,-37,45,13309,857,-13,7,13378,851,-1063,3184085,165,149,-169,-216
3207,27128,17348,-260,-4186,-539,-31,48,13393,850,-15,7,13383,851,-1056,3193537,165,113,-172,-216
3217,27139,17352,-236,-4102,-535,-43,42,13332,790,-14,7,13380,848,-1064,3202702,165,129,-192,-221
3227,27149,17372,-300,-4096,-535,-42,51,13301,871,-13,7,13377,852,-1070,3212666,165,151,-160,-181
3238,27159,17382,-286,-4106,-533,-48,51,13281,957,-12,7,13375,855,-1073,3223144,165,168,-143,-160
3248,27169,17366,-242,-4042,-542,-43,49,13220,897,-12,7,13367,853,-1073,3233904,165,219,-176,-235
3258,27180,17354,-246,-4176,-540,-44,45,13301,869,-13,7,13372,851,-1059,3244792,167,187,-202,-291
3268,27190,17328,-246,-4120,-542,-45,45,13360,806,-14,7,13372,849,-1054,3254967,165,186,-223,-331
3279,27200,17370,-254,-4228,-548,-37,42,13444,808,-16,7,13380,848,-1029,3265168,165,129,-247,-404
3289,27210,17360,-216,-4092,-541,-39,45,13372,762,-15,7,13377,843,-1046,3273679,165,151,-274,-393
3299,27221,17290,-224,-4220,-543,-43,43,13457,752,-17,7,13387,839,-996,3283537,166,83,-347,-595
3309,27231,17310,-262,-4140,-536,-41,45,13451,838,-16,7,13389,840,-983,3289182,165,70,-357,-639
3319,27241,17346,-234,-4106,-538,-41,50,13380,793,-15,7,13387,838,-1009,3294067,165,85,-354,-557
3329,27251,17378,-270,-4152,-537,-43,54,13433,860,-16,7,13388,839,-996,3302129,165,75,-360,-601
3339,27261,17348,-276,-4146,-540,-48,45,13458,942,-17,7,13390,840,-979,3309061,165,65,-363,-654
3350,27271,17308,-320,-4158,-539,-45,44,13501,1017,-17,7,13394,846,-927,3314527,165,40,-362,-804
3360,27281,17400,-322,-4040,-538,-29,45,13416,1020,-16,7,13384,851,-924,3315148,165,97,-330,-814
3370,27292,17398,-304,-4142,-537,-44,39,13376,945,-15,7,13384,854,-914,3316428,166,96,-310,-819
3380,27302,17336,-298,-4096,-542,-42,46,13293,958,-14,7,13382,858,-905,3316302,166,113,-297,-847
3390,27312,17348,-308,-4078,-542,-44,47,13216,996,-13,7,13377,862,-891,3315787,165,140,-283,-895
3400,27322,17344,-294,-4140,-535,-41,44,13298,976,-14,7,13379,864,-896,3314216,165,132,-254,-836
3411,27332,17382,-254,-4106,-536,-41,50,13294,890,-14,7,13376,863,-885,3314538,169,146,-281,-911
3421,27342,17312,-262,-4184,-537,-47,45,13377,877,-15,7,13383,863,-908,3313562,165,110,-253,-777
3431,27353,17364,-246,-4226,-537,-36,42,13458,853,-16,7,13390,861,-942,3316865,166,62,-224,-600
3441,27363,17336,-208,-4170,-538,-42,43,13487,773,-17,7,13394,855,-983,3323716,166,41,-223,-446
3451,27373,17330,-212,-4150,-536,-42,39,13468,688,-16,7,13396,850,-1021,3333989,165,30,-224,-317
3461,27383,17348,-214,-4212,-540,-43,42,13553,687,-17,7,13404,845,-1042,3346212,165,-11,-232,-229
3472,27393,17342,-184,-4160,-543,-39,45,13505,615,-17,7,13406,837,-1115,3358975,165,-22,-215,33
3482,27403,17336,-206,-4130,-528,-41,51,13429,649,-15,7,13406,833,-1179,3370587,165,-17,-192,266
3492,27413,17366,-208,-4196,-530,-41,43,13512,658,-15,7,13411,828,-1184,3378511,165,-47,-219,273
3502,27424,17354,-230,-4096,-531,-41,43,13432,686,-14,7,13407,826,-1265,3385935,166,-19,-161,583
3512,27434,17382,-264,-4060,-535,-40,42,13358,727,-13,7,13400,826,-1352,3384405,165,29,-77,925
3522,27444,17380,-290,-4072,-528,-37,41,13304,791,-11,7,13393,829,-1400,3368634,165,68,-11,1128
3532,27454,17338,-270,-4084,-534,-42,43,13257,863,-10,7,13389,830,-1436,3343364,165,94,30,1272
3542,27464,17280,-266,-4116,-539,-37,40,13340,859,-11,7,13389,830,-1432,3310092,165,93,31,1257
3552,27474,17358,-302,-4004,-540,-37,43,13260,885,-10,7,13377,834,-1516,3283139,165,166,135,1593
3562,27484,17346,-280,-4120,-540,-46,39,13344,897,-11,7,13377,836,-1524,3238482,165,170,157,1636
3573,27494,17370,-318,-4132,-540,-44,43,13368,979,-12,7,13377,841,-1533,3197570,165,171,208,1719
3583,27504,17356,-324,-4202,-534,-40,45,13450,1000,-13,7,13383,846,-1519,3158554,165,133,246,1739
3593,27515,17356,-334,-4152,-540,-47,44,13455,1087,-13,7,13386,853,-1510,3126427,165,122,289,1760
3604,27525,17340,-322,-4124,-541,-40,48,13384,1040,-12,7,13385,858,-1499,3098955,165,124,319,1754
3614,27535,17342,-312,-4180,-539,-44,49,13467,1022,-14,7,13390,863,-1511,3076999,165,98,368,1859
3624,27545,17298,-294,-4246,-541,-47,41,13550,1002,-15,7,13402,865,-1565,3054194,165,36,454,2159
3634,27556,17368,-288,-4216,-542,-46,39,13616,947,-17,7,13409,866,-1594,3024597,166,1,503,2324
3644,27566,17328,-268,-4174,-532,-39,45,13562,883,-16,7,13413,866,-1622,2989808,165,-18,534,2460
3654,27576,17374,-256,-4180,-538,-44,40,13521,808,-15,7,13417,865,-1660,2953971,165,-34,564,2617
3664,27586,17360,-206,-4142,-547,-44,47,13473,738,-15,7,13417,859,-1737,2912470,165,-30,594,2884
3674,27596,17314,-190,-4140,-538,-46,48,13456,653,-15,7,13418,852,-1830,2854457,165,-30,630,3216
3685,27606,17312,-272,-4072,-529,-41,47,13396,714,-13,7,13413,853,-1819,2776284,165,-1,617,3144
3695,27617,17346,-224,-4118,-532,-41,47,13313,725,-11,7,13411,850,-1856,2713112,166,9,621,3253
3705,27627,17368,-236,-4100,-537,-39,50,13255,786,-11,7,13407,848,-1883,2648909,166,30,621,3318
3715,27637,17358,-196,-4050,-550,-32,47,13201,719,-11,7,13399,841,-1937,2584594,166,76,615,3445
3725,27647,17368,-204,-4070,-538,-31,43,13183,635,-10,7,13392,836,-1978,2515966,165,110,607,3539
3735,27657,17366,-228,-4094,-541,-40,39,13238,699,-11,7,13388,833,-2004,2446226,165,130,603,3595
3746,27667,17376,-238,-4106,-547,-40,38,13294,762,-12,7,13386,830,-2022,2380121,165,145,602,3634
3756,27677,17328,-254,-4048,-543,-46,43,13215,792,-11,7,13379,829,-2066,2314717,165,186,632,3771
3766,27687,17350,-232,-4112,-535,-46,43,13293,761,-12,7,13378,827,-2070,2250269,165,193,614,3753
3776,27698,17366,-298,-4122,-537,-43,47,13318,843,-12,7,13377,831,-2086,2194038,166,198,654,3836
3786,27708,17376,-302,-4100,-535,-46,41,13291,925,-12,7,13375,834,-2112,2141773,165,215,703,3954
3796,27718,17376,-288,-4130,-537,-39,47,13375,924,-13,7,13375,837,-2123,2091367,165,217,730,4009
3807,27728,17330,-300,-4136,-536,-42,43,13440,979,-14,7,13376,841,-2133,2043150,165,211,766,4074
3817,27738,17356,-262,-4194,-543,-33,43,13501,920,-15,7,13381,840,-2123,2000648,165,179,761,4049
3827,27749,17376,-276,-4186,-540,-44,39,13567,866,-16,7,13386,841,-2118,1965023,166,155,767,4048
3837,27759,17398,-270,-4130,-544,-39,36,13483,865,-15,7,13385,841,-2122,1934221,165,160,772,4053
3847,27769,17368,-302,-4158,-540,-39,42,13467,949,-15,7,13387,844,-2121,1905677,165,149,797,4076
3858,27779,17332,-282,-4140,-539,-48,54,13415,882,-14,7,13388,847,-2123,1879240,165,142,810,4090
3868,27789,17352,-272,-4076,-541,-42,38,13331,878,-13,7,13384,847,-2122,1855679,165,167,807,4062
3878,27799,17312,-266,-4082,-544,-40,41,13251,851,-12,7,13380,847,-2123,1833890,165,185,804,4041
3888,27810,17354,-236,-4132,-543,-44,42,13322,804,-14,7,13380,844,-2122,1815538,167,183,783,4011
3898,27820,17306,-276,-4132,-540,-41,42,13388,857,-15,7,13382,845,-2126,1798360,165,176,795,4031
3908,27830,17306,-276,-4090,-532,-34,48,13307,885,-13,7,13379,847,-2128,1782588,165,189,801,4030
3918,27840,17352,-266,-4154,-538,-42,48,13390,869,-14,7,13381,848,-2131,1769343,165,177,806,4046
3929,27850,17346,-282,-4144,-542,-43,45,13457,922,-16,7,13383,849,-2136,1757161,165,169,821,4071
3939,27861,17330,-266,-4168,-544,-37,45,13516,861,-17,7,13386,849,-2142,1745895,166,149,829,4102
3949,27871,17360,-256,-4102,-542,-40,40,13433,846,-16,7,13384,848,-2142,1735693,165,162,819,4077
3959,27881,17344,-302,-4126,-531,-39,39,13400,925,-15,7,13383,851,-2143,1726554,165,163,842,4098
3970,27891,17382,-260,-4140,-537,-37,36,13396,839,-15,7,13383,850,-2146,1718880,165,161,840,4099
3980,27901,17320,-246,-4090,-535,-40,35,13318,805,-13,7,13380,848,-2144,1711188,165,175,822,4060
3990,27911,17326,-240,-4074,-538,-39,38,13239,774,-12,7,13376,845,-2141,1704628,165,196,797,4005
4000,27922,17308,-252,-4086,-538,-49,39,13304,829,-12,7,13374,844,-2140,1699052,166,209,785,3976
4010,27932,17380,-238,-4156,-544,-37,38,13380,793,-14,7,13375,841,-2139,1695077,165,198,767,3950
4020,27942,17334,-270,-4118,-542,-35,42,13361,877,-14,7,13374,842,-2142,1691504,165,200,773,3959
4031,27952,17330,-256,-4190,-535,-35,45,13442,858,-15,7,13380,841,-2141,1688503,165,169,772,3966
4041,27962,17328,-272,-4134,-536,-43,42,13372,905,-13,7,13381,842,-2143,1686081,165,164,779,3976
4051,27973,17382,-268,-4166,-547,-45,47,13449,871,-15,7,13384,843,-2146,1684538,166,151,784,3986
4061,27983,17344,-304,-4114,-549,-41,45,13389,932,-15,7,13383,846,-2145,1683134,169,157,806,3994
4071,27993,17320,-312,-4144,-539,-37,43,13447,995,-16,7,13385,851,-2146,1682216,165,147,837,4029
4082,28003,17366,-256,-4038,-538,-39,48,13370,958,-15,7,13376,850,-2133,1681838,165,187,808,3926
4092,28013,17396,-268,-4146,-538,-39,40,13398,877,-15,7,13377,850,-2136,1682764,165,183,812,3937
4102,28023,17314,-308,-4092,-548,-39,42,13341,941,-15,7,13374,854,-2138,1683504,165,195,836,3951
4112,28034,17354,-288,-4178,-539,-37,39,13424,934,-16,7,13378,856,-2154,1684814,165,174,866,4036
4122,28044,17368,-290,-4096,-542,-45,38,13340,932,-15,7,13375,857,-2147,1685790,165,189,869,4003
4132,28054,17338,-274,-4098,-540,-45,46,13286,866,-14,7,13373,858,-2143,1687280,165,199,865,3971
4143,28064,17332,-260,-4076,-536,-43,44,13212,824,-13,7,13369,858,-2130,1689247,165,218,842,3891
4153,28074,17370,-214,-4124,-535,-45,48,13274,765,-14,7,13369,853,-2120,1692108,165,218,799,3808
4163,28085,17406,-264,-4114,-537,-39,48,13298,848,-14,7,13367,853,-2117,1695614,166,227,791,3781
4173,28095,17358,-240,-4120,-536,-42,46,13347,777,-15,7,13367,851,-2112,1699290,165,228,769,3735
4183,28105,17368,-228,-4174,-541,-49,39,13429,754,-16,7,13371,848,-2110,1703342,165,209,747,3711
4194,28115,17380,-270,-4114,-546,-42,42,13368,814,-15,7,13370,848,-2113,1707623,165,216,749,3709
4204,28125,17356,-282,-4216,-542,-41,43,13449,839,-17,7,13377,849,-2123,1712003,165,179,773,3777
4214,28136,17352,-256,-4168,-535,-36,53,13529,815,-18,7,13380,849,-2128,1716280,166,162,774,3797
4224,28146,17360,-254,-4164,-541,-44,47,13445,814,-17,7,13384,848,-2134,1720588,165,149,773,3813
4234,28156,17316,-260,-4106,-549,-53,47,13363,832,-16,7,13383,848,-2137,1724837,165,155,769,3805
4244,28166,17358,-266,-4078,-546,-45,48,13280,845,-16,7,13379,848,-2137,1729256,165,176,764,3781
4255,28176,17334,-278,-4156,-537,-45,44,13362,865,-17,7,13382,850,-2141,1733829,165,163,776,3805
4265,28186,17326,-286,-4078,-537,-44,46,13285,901,-16,7,13378,852,-2138,1738433,165,181,781,3786
4275,28197,17358,-264,-4118,-530,-43,43,13349,844,-16,7,13377,852,-2139,1743291,166,185,779,3778
4285,28207,17366,-296,-4076,-543,-44,46,13281,896,-15,7,13373,855,-2137,1748259,165,207,788,3762
4295,28217,17388,-252,-4130,-536,-42,40,13338,832,-16,7,13373,853,-2136,1753424,165,208,777,3742
4306,28227,17420,-208,-4166,-541,-48,46,13386,761,-17,7,13375,848,-2133,1758749,165,198,742,3693
4316,28237,17342,-286,-4032,-539,-50,43,13311,801,-16,7,13367,850,-2135,1764173,165,237,748,3680
4326,28248,17304,-300,-4102,-543,-46,42,13324,887,-16,7,13367,853,-2148,1769619,166,242,778,3739
4336,28258,17316,-216,-4082,-548,-48,40,13299,804,-16,7,13364,848,-2130,1774922,165,254,728,3619
4346,28268,17350,-244,-4106,-550,-46,46,13351,735,-18,7,13363,847,-2125,1780689,165,259,708,3571
4356,28278,17356,-204,-4160,-538,-38,42,13422,690,-19,7,13366,841,-2104,1786625,165,243,655,3454
4367,28288,17316,-264,-4160,-534,-48,50,13464,766,-19,7,13370,842,-2100,1792865,165,224,655,3448
4377,28298,17342,-264,-4150,-543,-38,33,13457,851,-19,7,13372,841,-2099,1799194,165,213,655,3445
4387,28309,17344,-264,-4142,-540,-46,34,13374,840,-17,7,13374,841,-2099,1805576,166,206,656,3444
4397,28319,17350,-260,-4104,-539,-46,44,13290,834,-16,7,13373,840,-2103,1811998,165,214,655,3446
4407,28329,17376,-288,-4052,-540,-36,47,13215,875,-15,7,13366,843,-2118,1818431,165,246,676,3487
4417,28339,17336,-308,-4098,-538,-40,38,13265,944,-16,7,13363,847,-2135,1824778,165,256,714,3567
4428,28349,17348,-250,-4054,-536,-44,42,13212,877,-15,7,13358,845,-2129,1830988,165,282,695,3511
4438,28360,17360,-252,-4088,-538,-45,42,13254,802,-15,7,13355,844,-2125,1837302,167,294,681,3472
4448,28370,17302,-272,-4116,-541,-39,46,13327,845,-17,7,13355,845,-2133,1843679,165,291,692,3501
4458,28380,17342,-244,-4142,-541,-39,36,13400,802,-18,7,13357,843,-2126,1850051,165,281,675,3461
4468,28390,17320,-252,-4094,-538,-42,39,13316,809,-16,7,13355,842,-2124,1856542,165,288,665,3435
4479,28400,17336,-276,-4114,-542,-48,38,13350,888,-17,7,13356,842,-2133,1863084,165,290,679,3469
4489,28410,17356,-252,-4092,-536,-41,45,13288,830,-16,7,13353,842,-2130,1869605,165,300,667,3439
4499,28421,17298,-242,-4084,-534,-48,49,13281,744,-16,7,13351,840,-2122,1876167,166,308,646,3385
4509,28431,17362,-210,-4170,-536,-45,42,13362,718,-16,7,13356,836,-2092,1882806,165,288,592,3243
4519,28441,17324,-256,-4106,-543,-38,43,13339,802,-16,7,13355,835,-2093,1889492,165,290,589,3237
4530,28451,17400,-270,-4216,-537,-36,43,13420,820,-17,7,13361,836,-2083,1896205,165,259,587,3216
4540,28461,17320,-306,-4162,-536,-40,44,13462,895,-18,7,13365,840,-2089,1902901,165,242,619,3269
4550,28472,17360,-290,-4110,-533,-40,41,13380,915,-16,7,13364,842,-2096,1909662,166,248,638,3302
4560,28482,17360,-296,-4134,-529,-42,43,13413,995,-16,7,13364,845,-2103,1916472,165,245,661,3345
4570,28492,17356,-242,-4162,-534,-41,46,13440,914,-16,7,13368,844,-2103,1923326,165,230,651,3339
4581,28502,17368,-292,-4110,-545,-38,48,13356,929,-15,7,13366,846,-2108,1930205,165,237,667,3358
4591,28512,17354,-294,-4184,-542,-35,41,13440,935,-17,7,13370,849,-2118,1937107,165,216,693,3419
4601,28522,17334,-258,-4112,-536,-40,37,13383,871,-15,7,13369,848,-2119,1944041,165,219,689,3409
4611,28533,17358,-270,-4154,-543,-47,46,13467,866,-17,7,13372,848,-2124,1950998,166,209,697,3432
4621,28543,17360,-270,-4206,-534,-42,41,13551,866,-18,7,13379,849,-2136,1957976,165,181,713,3492
4631,28553,17340,-312,-4110,-534,-39,41,13480,911,-16,7,13377,853,-2124,1964948,165,186,725,3462
4642,28563,17328,-254,-4130,-533,-40,42,13427,844,-15,7,13378,852,-2130,1971953,165,183,723,3475
4652,28573,17376,-280,-4130,-542,-45,39,13365,902,-14,7,13378,853,-2129,1978983,165,184,727,3468
4662,28584,17382,-284,-4100,-543,-49,35,13282,909,-13,7,13376,853,-2119,1986034,166,195,724,3425
4672,28594,17344,-252,-4142,-537,-40,46,13352,862,-14,7,13377,852,-2128,1993082,165,189,724,3447
4682,28604,17292,-280,-4106,-548,-43,50,13363,949,-15,7,13377,854,-2126,2000172,165,191,728,3438
4693,28614,17356,-304,-4102,-541,-41,45,13284,982,-14,7,13374,858,-2116,2007273,165,200,735,3405
4703,28624,17330,-234,-4022,-542,-45,54,13225,921,-14,7,13366,855,-2085,2014328,165,235,682,3237
4713,28635,17388,-260,-4154,-534,-37,52,13302,889,-15,7,13367,855,-2091,2021070,169,227,683,3257
4723,28645,17372,-288,-4220,-532,-37,44,13385,897,-16,7,13374,857,-2117,2027923,165,197,720,3378
4733,28655,17376,-278,-4088,-532,-38,39,13301,894,-14,7,13370,858,-2105,2035044,165,212,711,3324
4743,28665,17376,-312,-4096,-534,-44,45,13272,976,-13,7,13368,862,-2096,2042076,165,224,722,3300
4754,28675,17360,-246,-4078,-538,-40,46,13248,893,-12,7,13363,860,-2077,2048994,165,239,689,3199
4764,28685,17354,-230,-4164,-539,-41,44,13320,848,-14,7,13367,857,-2086,2055620,165,225,679,3215
4774,28696,17384,-246,-4140,-547,-33,41,13386,795,-15,7,13367,855,-2089,2062444,166,221,670,3208
4784,28706,17354,-278,-4214,-543,-37,42,13464,824,-17,7,13374,856,-2109,2069315,165,191,696,3301
4794,28716,17354,-240,-4114,-548,-34,42,13386,791,-16,7,13372,853,-2113,2076453,165,195,683,3290
4805,28726,17332,-230,-4152,-541,-42,42,13459,746,-17,7,13375,850,-2124,2083639,165,184,675,3312
4815,28736,17350,-290,-4158,-533,-43,46,13467,833,-17,7,13378,852,-2122,2090933,165,173,687,3320
4825,28747,17326,-252,-4116,-533,-39,41,13385,815,-15,7,13377,851,-2127,2098217,166,175,682,3324
4835,28757,17358,-270,-4174,-532,-44,44,13464,845,-16,7,13381,851,-2131,2105558,165,159,689,3345
4845,28767,17386,-244,-4144,-539,-32,48,13406,782,-15,7,13381,850,-2141,2112928,165,157,686,3367
4855,28777,17330,-286,-4186,-549,-34,42,13472,834,-17,7,13386,851,-2138,2120357,165,134,696,3371
4866,28787,17334,-252,-4118,-542,-45,44,13390,816,-16,7,13386,850,-2147,2127759,165,137,694,3385
4876,28797,17318,-236,-4148,-538,-46,41,13460,766,-17,7,13388,848,-2164,2135215,165,128,695,3434
4886,28808,17330,-280,-4094,-538,-42,46,13393,819,-16,7,13386,849,-2158,2142692,166,139,694,3404
4896,28818,17362,-286,-4184,-535,-40,42,13465,864,-16,7,13390,851,-2151,2150214,165,121,700,3396
4906,28828,17378,-244,-4082,-535,-36,43,13384,838,-15,7,13385,849,-2161,2157718,165,140,694,3403
4917,28838,17352,-270,-4138,-545,-35,44,13443,899,-16,7,13385,849,-2161,2165287,165,137,695,3400
4927,28848,17366,-240,-4060,-535,-49,44,13367,864,-15,7,13379,847,-2171,2172874,165,162,687,3403
4937,28859,17358,-280,-4142,-535,-37,44,13438,910,-15,7,13380,849,-2169,2180507,166,157,691,3398
4947,28869,17334,-260,-4142,-538,-37,42,13438,823,-15,7,13381,848,-2172,2188161,165,151,691,3405
4957,28879,17336,-274,-4160,-539,-46,45,13498,885,-16,7,13385,849,-2171,2195832,165,139,695,3406
4967,28889,17356,-266,-4206,-533,-40,42,13580,864,-17,7,13391,849,-2174,2203515,165,114,701,3427
4978,28899,17328,-258,-4096,-541,-40,48,13496,854,-16,7,13388,849,-2179,2211187,165,124,699,3428
4988,28909,17388,-246,-4126,-543,-47,51,13420,820,-15,7,13388,848,-2190,2218899,165,129,697,3449
4998,28920,17364,-262,-4178,-546,-37,46,13503,835,-17,7,13391,848,-2192,2226619,167,114,697,3455
5008,28930,17334,-214,-4226,-533,-46,52,13571,785,-18,7,13400,844,-2217,2234345,165,82,699,3535
5018,28940,17334,-228,-4198,-538,-39,43,13624,718,-18,7,13406,841,-2234,2241788,165,59,699,3590
5028,28950,17328,-228,-4186,-536,-41,46,13545,744,-17,7,13410,838,-2254,2248977,165,41,702,3649
5038,28960,17326,-234,-4200,-540,-44,43,13629,751,-18,7,13417,836,-2261,2255791,165,19,697,3669
5048,28970,17384,-264,-4184,-539,-51,49,13569,811,-18,7,13420,836,-2245,2262515,165,6,684,3612
5058,28980,17380,-218,-4136,-539,-44,43,13499,767,-17,7,13420,832,-2306,2269548,165,12,715,3804
5069,28990,17366,-230,-4078,-537,-40,41,13416,759,-15,7,13414,830,-2378,2275037,165,37,758,4025
5079,29000,17346,-294,-4074,-535,-39,40,13354,816,-14,7,13408,833,-2377,2277104,165,59,769,4018
5089,29010,17378,-320,-4106,-538,-42,49,13330,899,-14,7,13405,838,-2345,2279863,165,69,764,3913
5099,29021,17358,-272,-4058,-539,-40,42,13247,887,-12,7,13399,839,-2361,2284655,166,96,777,3952
5109,29031,17326,-322,-4080,-538,-40,42,13249,973,-12,7,13394,844,-2343,2288883,166,111,786,3896
5119,29041,17326,-284,-4038,-541,-44,44,13171,938,-11,7,13387,846,-2344,2294343,165,141,789,3879
5129,29051,17346,-312,-4142,-538,-49,46,13253,959,-13,7,13388,851,-2341,2300122,165,137,807,3882
5140,29061,17350,-316,-4120,-533,-55,48,13329,999,-14,7,13389,856,-2334,2306226,165,140,821,3870
5150,29071,17374,-294,-4122,-530,-47,46,13355,918,-13,7,13388,858,-2329,2312755,165,144,827,3855
5160,29082,17382,-268,-4164,-539,-44,46,13430,880,-15,7,13390,858,-2340,2319577,166,136,835,3889
5170,29092,17360,-266,-4130,-546,-48,40,13356,839,-14,7,13391,858,-2342,2326179,165,137,834,3886
5180,29102,17366,-216,-4134,-543,-35,43,13375,755,-15,7,13390,853,-2351,2332894,165,137,817,3888
5190,29112,17332,-222,-4110,-546,-47,40,13320,689,-14,7,13389,849,-2356,2339449,165,142,800,3878
5201,29122,17356,-256,-4158,-541,-40,42,13384,744,-15,7,13391,848,-2360,2346046,165,134,798,3885
5211,29132,17394,-200,-4076,-536,-38,41,13309,705,-14,7,13385,842,-2371,2352696,165,154,775,3878
5221,29143,17342,-234,-4174,-534,-39,46,13391,722,-15,7,13389,840,-2364,2359103,165,138,758,3845
5231,29153,17332,-248,-4212,-536,-42,51,13473,745,-15,7,13397,839,-2346,2365910,165,110,739,3787
5241,29163,17362,-208,-4142,-541,-41,41,13423,675,-15,7,13397,835,-2364,2373342,165,108,731,3825
5251,29173,17322,-246,-4208,-531,-39,40,13499,712,-15,7,13404,833,-2335,2380356,165,81,704,3730
5262,29183,17346,-270,-4096,-539,-45,40,13431,761,-14,7,13401,834,-2348,2388031,165,93,715,3764
5272,29193,17346,-298,-4068,-541,-44,39,13367,815,-13,7,13396,837,-2360,2395562,165,115,736,3796
5282,29204,17334,-248,-4048,-537,-52,40,13283,808,-12,7,13389,835,-2389,2403040,166,142,749,3870
5292,29214,17364,-256,-4094,-537,-43,44,13216,861,-11,7,13386,835,-2403,2409806,165,155,756,3904
5302,29224,17340,-260,-4130,-545,-43,49,13299,849,-12,7,13387,835,-2405,2416165,165,154,755,3901
5313,29234,17348,-282,-4112,-541,-47,42,13345,922,-13,7,13386,837,-2415,2422676,165,159,770,3930
5323,29244,17372,-288,-4082,-539,-42,42,13261,924,-12,7,13381,839,-2433,2429034,165,176,791,3985
5333,29255,17366,-286,-4114,-538,-45,45,13345,916,-13,7,13380,841,-2445,2434803,166,182,808,4022
5343,29265,17358,-340,-4144,-543,-42,45,13381,994,-14,7,13381,848,-2470,2440253,165,179,859,4128
5353,29275,17342,-286,-4084,-543,-48,38,13308,952,-13,7,13378,850,-2473,2444544,165,193,866,4129
5363,29285,17322,-290,-4166,-531,-43,42,13392,944,-14,7,13382,852,-2494,2449021,169,179,894,4211
5374,29295,17360,-234,-4128,-537,-40,46,13385,859,-14,7,13382,849,-2488,2452640,165,179,875,4172
5384,29305,17334,-256,-4156,-536,-42,46,13464,829,-15,7,13385,849,-2494,2456941,165,170,875,4186
5394,29316,17338,-268,-4082,-545,-44,45,13381,842,-14,7,13381,849,-2490,2461210,166,183,870,4159
5404,29326,17310,-258,-4148,-539,-44,44,13465,831,-15,7,13384,849,-2496,2465997,165,174,871,4173
5414,29336,17348,-268,-4132,-543,-47,46,13388,865,-15,7,13385,849,-2500,2470908,165,173,874,4178
5425,29346,17386,-240,-4198,-542,-44,45,13463,826,-16,7,13390,847,-2507,2476072,165,155,870,4194
5435,29356,17312,-220,-4192,-539,-47,44,13530,773,-17,7,13396,843,-2514,2480995,165,133,859,4209
5445,29367,17300,-196,-4214,-537,-40,37,13594,715,-17,7,13404,837,-2524,2485792,166,104,843,4230
5455,29377,17358,-248,-4154,-536,-46,44,13522,758,-16,7,13406,836,-2529,2490398,165,99,840,4235
5465,29387,17338,-206,-4066,-537,-43,44,13442,734,-15,7,13400,831,-2582,2494863,165,122,856,4378
5475,29397,17348,-276,-4066,-538,-49,49,13370,779,-14,7,13395,833,-2609,2496085,165,144,880,4455
5485,29407,17338,-288,-4152,-540,-45,45,13417,850,-15,7,13397,835,-2599,2495655,165,136,882,4423
5496,29417,17392,-260,-4018,-533,-40,49,13333,847,-13,7,13387,836,-2636,2496942,165,175,904,4519
5506,29428,17356,-272,-4048,-533,-40,54,13249,859,-12,7,13380,838,-2663,2495344,166,201,926,4594
5516,29438,17370,-278,-4112,-533,-41,48,13325,896,-12,7,13378,839,-2678,2491976,165,207,941,4635
5526,29448,17320,-302,-4114,-533,-43,45,13362,974,-13,7,13377,843,-2700,2487518,165,210,973,4714
5536,29458,17370,-280,-4060,-541,-45,43,13283,945,-12,7,13372,845,-2715,2481919,165,232,986,4746
5547,29468,17330,-246,-4104,-538,-53,42,13305,861,-12,7,13371,843,-2706,2475398,165,236,970,4701
5557,29478,17324,-308,-4148,-532,-51,46,13372,915,-12,7,13374,847,-2738,2471009,165,229,1012,4818
5567,29489,17340,-242,-4116,-545,-39,42,13360,829,-13,7,13374,845,-2728,2464164,165,230,993,4766
5577,29499,17392,-236,-4170,-543,-40,48,13432,786,-14,7,13376,843,-2715,2460234,165,219,971,4711
5587,29509,17362,-262,-4144,-538,-37,47,13419,871,-14,7,13377,843,-2717,2458191,165,215,971,4708
5598,29519,17340,-278,-4116,-530,-41,47,13338,898,-12,7,13376,845,-2726,2456608,165,217,982,4735
5608,29529,17360,-220,-4138,-539,-43,43,13367,817,-12,7,13377,841,-2710,2455067,165,213,951,4661
5618,29540,17328,-268,-4130,-537,-41,43,13423,882,-13,7,13378,842,-2713,2455476,167,211,955,4668
5628,29550,17346,-264,-4194,-539,-39,39,13506,865,-14,7,13383,841,-2707,2456393,165,191,951,4651
5638,29560,17342,-260,-4122,-538,-42,36,13423,846,-13,7,13383,841,-2710,2458247,165,192,950,4650
5649,29570,17342,-248,-4106,-539,-45,36,13347,809,-12,7,13382,839,-2713,2460384,165,198,945,4644
5659,29580,17350,-222,-4132,-544,-44,39,13386,732,-12,7,13382,835,-2707,2462855,165,196,923,4604
5669,29591,17288,-250,-4136,-541,-41,46,13444,794,-13,7,13384,834,-2702,2465996,166,189,914,4577
5679,29601,17366,-260,-4078,-541,-44,44,13361,809,-12,7,13380,834,-2720,2470171,165,205,924,4619
5689,29611,17362,-236,-4054,-545,-38,48,13279,790,-12,7,13373,832,-2737,2473527,165,227,923,4648
5699,29621,17362,-280,-4110,-544,-44,42,13308,871,-12,7,13372,834,-2757,2476162,165,233,943,4704
5710,29631,17342,-230,-4162,-545,-43,43,13377,821,-14,7,13375,831,-2733,2477839,165,220,912,4613
5720,29641,17320,-226,-4076,-546,-45,46,13308,773,-14,7,13372,828,-2738,2481593,165,233,900,4604
5730,29652,17336,-218,-4082,-545,-40,51,13253,706,-13,7,13368,825,-2738,2485461,166,244,881,4575
5740,29662,17328,-240,-4124,-538,-42,43,13329,743,-14,7,13369,823,-2726,2489728,165,241,864,4525
5750,29672,17372,-272,-4154,-534,-37,46,13386,806,-15,7,13370,825,-2722,2495094,165,234,865,4513
5761,29682,17362,-266,-4144,-536,-47,49,13440,873,-15,7,13372,826,-2720,2500900,165,229,865,4502
5771,29692,17374,-300,-4148,-534,-51,43,13429,959,-15,7,13374,830,-2732,2507082,165,225,888,4546
5781,29703,17384,-270,-4132,-538,-34,46,13383,887,-14,7,13373,831,-2739,2512984,166,225,896,4564
5791,29713,17360,-288,-4100,-542,-42,45,13304,918,-13,7,13371,833,-2762,2518738,165,234,921,4633
5801,29723,17372,-242,-4126,-536,-53,40,13336,838,-13,7,13372,831,-2758,2523614,165,235,909,4605
5811,29733,17342,-268,-4142,-540,-44,48,13419,858,-15,7,13373,832,-2759,2528973,165,229,912,4605
5822,29743,17334,-266,-4096,-543,-36,44,13334,856,-14,7,13371,833,-2771,2534528,165,237,921,4633
5832,29753,17376,-238,-4120,-542,-40,41,13338,769,-14,7,13370,831,-2767,2539846,165,239,907,4602
5842,29764,17346,-274,-4156,-540,-46,43,13404,823,-15,7,13373,832,-2767,2545635,166,230,912,4603
5852,29774,17374,-268,-4134,-543,-41,45,13362,898,-15,7,13373,833,-2773,2551722,165,229,916,4613
5862,29784,17358,-248,-4180,-545,-39,42,13435,855,-16,7,13377,831,-2761,2557817,165,214,903,4569
5873,29794,17384,-228,-4132,-543,-36,45,13395,779,-16,7,13376,829,-2759,2564673,165,214,888,4545
5883,29804,17330,-228,-4100,-536,-33,41,13320,738,-15,7,13374,826,-2763,2571715,165,220,878,4539
5893,29815,17362,-238,-4068,-536,-37,47,13236,755,-13,7,13369,824,-2785,2578787,166,237,884,4589
5903,29825,17348,-234,-4142,-537,-43,47,13321,753,-14,7,13370,823,-2769,2585115,165,231,862,4526
5913,29835,17374,-294,-4118,-531,-46,47,13327,840,-14,7,13369,826,-2791,2592296,165,235,889,4595
5923,29845,17320,-226,-4166,-533,-34,44,13400,797,-14,7,13373,824,-2760,2598774,165,220,855,4489
5933,29855,17340,-266,-4086,-536,-40,44,13321,829,-13,7,13370,824,-2783,2606492,165,231,873,4552
5944,29866,17360,-246,-4090,-533,-47,44,13249,785,-12,7,13367,824,-2798,2613646,165,241,877,4585
5954,29876,17412,-258,-4164,-533,-45,45,13331,802,-12,8,13369,824,-2789,2620459,165,234,870,4551
5964,29886,17354,-252,-4172,-542,-42,44,13416,805,-14,7,13373,823,-2768,2627732,165,220,852,4481
5974,29896,17292,-258,-4118,-543,-45,42,13362,872,-13,7,13374,823,-2768,2635702,165,218,851,4474
5985,29906,17344,-280,-4096,-538,-34,42,13282,901,-12,7,13371,825,-2787,2643792,165,227,871,4529
5995,29916,17318,-288,-4066,-538,-38,46,13202,931,-11,7,13366,828,-2817,2651508,165,242,901,4618
6005,29927,17326,-262,-4134,-539,-48,44,13281,899,-12,7,13368,828,-2818,2658312,166,238,901,4613
6015,29937,17300,-258,-4140,-536,-33,44,13359,869,-13,7,13370,828,-2813,2665292,169,229,897,4596
6025,29947,17370,-262,-4172,-530,-43,36,13442,852,-13,7,13374,828,-2807,2672707,165,218,893,4574
6035,29957,17338,-296,-4104,-536,-38,37,13375,905,-12,7,13372,831,-2817,2680442,165,223,912,4607
6046,29967,17340,-244,-4114,-538,-48,43,13355,821,-12,7,13372,830,-2818,2687986,165,225,905,4596
6056,29978,17346,-246,-4156,-540,-38,44,13437,799,-13,7,13374,829,-2814,2695665,166,216,897,4576
6066,29988,17324,-266,-4086,-543,-34,44,13356,826,-12,7,13370,829,-2823,2703575,165,225,904,4594
6076,29998,17366,-276,-4204,-539,-34,46,13437,845,-13,7,13376,831,-2819,2711394,165,206,906,4585
6086,30008,17360,-250,-4108,-536,-51,36,13358,817,-12,7,13375,830,-2824,2719452,165,211,904,4587
6097,30018,17342,-234,-4090,-546,-43,50,13290,767,-11,7,13372,828,-2830,2727487,165,220,897,4587
6107,30028,17320,-240,-4122,-537,-37,48,13374,771,-12,7,13372,826,-2830,2735468,165,219,889,4573
6117,30039,17368,-238,-4088,-538,-39,44,13290,766,-11,7,13369,825,-2840,2743599,166,229,887,4587
6127,30049,17372,-204,-4142,-541,-41,41,13352,708,-12,7,13370,820,-2826,2751561,165,225,858,4524
6137,30059,17316,-266,-4138,-543,-44,47,13396,782,-13,7,13372,821,-2820,2759929,165,219,856,4502
6147,30069,17332,-210,-4078,-542,-43,47,13326,734,-12,7,13368,817,-2836,2768485,165,230,848,4526
6158,30079,17350,-224,-4190,-548,-47,48,13410,729,-14,7,13374,815,-2794,2776815,165,211,806,4384
6168,30090,17360,-230,-4118,-536,-50,42,13327,740,-13,7,13374,813,-2802,2785469,167,214,802,4395
6178,30100,17386,-274,-4120,-536,-39,43,13329,826,-12,7,13372,814,-2815,2794160,165,218,817,4432
6189,30110,17384,-244,-4152,-538,-36,40,13406,792,-13,7,13374,813,-2805,2802893,165,212,804,4391
6198,30120,17348,-300,-4128,-542,-40,47,13395,878,-14,7,13374,817,-2807,2811625,165,211,820,4402
6209,30130,17348,-286,-4150,-541,-47,46,13466,927,-15,7,13376,820,-2798,2820415,165,205,822,4377
6219,30140,17354,-296,-4048,-545,-43,43,13382,933,-14,7,13370,823,-2829,2829140,165,227,855,4466
6229,30151,17388,-230,-4150,-542,-38,47,13399,849,-15,7,13371,821,-2823,2837995,166,222,839,4432
6239,30161,17322,-304,-4032,-537,-49,39,13322,883,-13,7,13364,825,-2861,2846885,165,247,881,4547
6249,30171,17344,-302,-4066,-539,-45,34,13252,930,-12,7,13359,828,-2893,2855364,165,262,916,4641
6260,30181,17386,-310,-4148,-543,-41,42,13330,960,-14,7,13361,832,-2929,2862984,165,259,956,4755
6270,30191,17318,-290,-4106,-531,-39,42,13353,877,-13,7,13360,835,-2949,2868862,165,262,979,4813
6280,30202,17406,-266,-4012,-536,-35,43,13269,871,-12,7,13349,835,-2914,2873939,166,291,952,4695
6290,30212,17370,-276,-4094,-535,-40,47,13229,948,-11,7,13347,837,-2923,2881129,165,298,961,4716
6300,30222,17340,-258,-4140,-537,-37,44,13301,905,-12,7,13349,837,-2933,2888050,165,292,966,4738
6310,30232,17360,-262,-4074,-543,-43,43,13231,858,-11,7,13345,837,-2921,2894775,165,303,955,4690
6321,30242,17316,-288,-4148,-541,-43,46,13312,881,-13,7,13348,839,-2970,2902228,165,295,997,4837
6331,30252,17354,-278,-4076,-532,-44,46,13228,892,-11,7,13345,841,-2969,2907253,165,305,1000,4827
6341,30263,17324,-234,-4178,-535,-44,47,13307,859,-12,7,13351,839,-2975,2912713,165,288,994,4836
6351,30273,17358,-228,-4146,-534,-41,39,13367,798,-12,7,13353,836,-2961,2918219,165,280,972,4781
6361,30283,17344,-286,-4088,-540,-47,39,13311,862,-12,7,13351,838,-2974,2924887,165,288,988,4816
6372,30293,17336,-278,-4112,-537,-38,40,13372,922,-12,7,13350,839,-2990,2931025,165,290,1002,4859
6382,30304,17364,-244,-4142,-539,-41,49,13398,839,-13,7,13352,838,-2988,2936637,166,284,994,4841
6392,30314,17426,-236,-4210,-537,-39,44,13474,804,-14,7,13357,836,-2995,2942891,165,267,991,4855
6402,30324,17364,-218,-4178,-536,-49,41,13514,727,-14,7,13362,832,-2992,2948869,165,253,974,4831
6412,30334,17310,-268,-4168,-532,-43,43,13530,812,-14,7,13367,833,-3000,2955263,165,239,982,4855
6423,30344,17342,-268,-4122,-536,-39,41,13449,837,-12,7,13367,833,-3003,2961511,165,239,985,4857
6433,30354,17384,-256,-4090,-540,-47,43,13366,830,-11,7,13364,833,-3001,2967976,165,249,979,4837
6443,30365,17380,-264,-4120,-541,-47,38,13291,870,-10,7,13363,833,-3003,2974884,166,251,980,4837
6453,30375,17334,-304,-4134,-530,-43,42,13355,926,-10,7,13365,837,-3015,2981855,165,248,1002,4878
6464,30385,17300,-292,-4144,-534,-45,45,13440,937,-11,7,13368,840,-3031,2988378,165,240,1023,4928
6474,30395,17378,-296,-4114,-534,-48,43,13356,945,-10,7,13367,843,-3027,2994323,165,243,1028,4914
6484,30406,17380,-346,-4050,-537,-42,46,13286,995,-8,7,13360,850,-2990,3000839,166,262,1026,4815
6494,30416,17388,-250,-4112,-543,-44,44,13294,909,-9,7,13359,848,-2974,3009153,165,265,1008,4755
6504,30426,17328,-234,-4110,-535,-37,44,13319,826,-9,7,13358,846,-2961,3017985,165,265,987,4700
6514,30436,17388,-308,-4126,-531,-46,40,13335,910,-9,7,13358,849,-2978,3027007,165,267,1011,4755
6525,30446,17400,-288,-4176,-539,-42,45,13418,916,-10,7,13362,851,-3022,3035915,165,259,1046,4881
6535,30457,17332,-300,-4078,-540,-39,50,13336,939,-9,7,13358,855,-3001,3043573,166,268,1041,4817
6545,30467,17378,-280,-4120,-538,-39,48,13338,854,-9,7,13357,856,-3003,3052127,165,269,1044,4817
6555,30477,17354,-248,-4110,-544,-49,50,13317,770,-9,7,13357,855,-2988,3060721,165,271,1025,4759
6566,30487,17338,-244,-4154,-540,-47,51,13402,778,-10,7,13360,854,-3013,3069739,165,263,1034,4820
6576,30497,17328,-254,-4112,-541,-42,45,13332,829,-10,7,13360,853,-3010,3078437,165,263,1026,4799
6586,30508,17398,-206,-4188,-541,-41,42,13398,774,-11,7,13364,848,-3033,3087399,166,251,1022,4845
6596,30518,17382,-266,-4184,-542,-35,45,13471,816,-12,7,13368,848,-3060,3095877,165,239,1040,4920
6607,30528,17346,-254,-4166,-549,-38,44,13556,814,-14,7,13371,847,-3085,3103239,165,230,1052,4981
6617,30538,17314,-240,-4100,-535,-45,42,13472,799,-12,7,13370,845,-3087,3109258,165,234,1044,4973
6628,30549,17364,-242,-4152,-536,-44,44,13409,741,-11,7,13372,843,-3102,3115657,165,228,1046,5003
6637,30559,17378,-280,-4102,-533,-38,53,13354,809,-10,7,13370,845,-3093,3121397,165,235,1043,4972
6647,30569,17332,-280,-4100,-535,-43,46,13315,887,-9,7,13368,847,-3087,3128001,165,239,1042,4950
6658,30579,17380,-240,-4162,-533,-42,42,13382,835,-10,7,13371,845,-3102,3135316,165,232,1044,4982
6668,30590,17348,-302,-4150,-525,-44,50,13423,912,-9,7,13373,849,-3103,3142016,169,226,1055,4988
6678,30600,17362,-294,-4080,-542,-40,43,13339,925,-8,7,13369,851,-3078,3148859,165,236,1045,4913
6688,30610,17338,-284,-4094,-536,-34,47,13256,907,-7,7,13366,853,-3065,3157232,165,242,1040,4872
6699,30620,17370,-338,-4156,-537,-36,40,13319,963,-8,7,13368,859,-3084,3166193,165,237,1073,4936
6709,30630,17388,-288,-4154,-542,-40,51,13398,936,-10,7,13369,861,-3103,3174618,165,232,1089,4986
6719,30641,17336,-270,-4068,-543,-42,49,13318,908,-9,7,13365,861,-3058,3182384,165,243,1057,4846
6729,30651,17364,-264,-4150,-546,-42,47,13394,871,-10,7,13367,861,-3083,3191691,165,238,1070,4906
6740,30661,17342,-300,-4174,-537,-47,43,13465,918,-11,7,13372,864,-3128,3200709,165,228,1109,5036
6750,30671,17346,-264,-4168,-527,-43,47,13512,846,-11,7,13375,864,-3173,3207832,165,219,1137,5160
6760,30682,17364,-268,-4132,-538,-40,50,13428,856,-10,7,13375,864,-3180,3211721,165,219,1139,5169
6770,30692,17312,-222,-4168,-545,-45,47,13481,787,-11,7,13380,860,-3250,3215365,165,209,1170,5349
6781,30702,17362,-234,-4128,-529,-41,43,13401,760,-10,7,13380,858,-3273,3211445,165,210,1173,5397
6791,30713,17374,-210,-4126,-529,-40,38,13363,681,-8,7,13379,852,-3305,3205348,166,213,1175,5468
6801,30723,17338,-232,-4172,-534,-43,46,13442,711,-9,7,13383,850,-3339,3194604,165,203,1187,5551
6811,30733,17356,-226,-4084,-530,-42,46,13358,717,-7,7,13379,847,-3364,3179083,165,214,1189,5600
6821,30743,17354,-264,-4150,-535,-43,48,13407,788,-7,7,13381,847,-3366,3160924,165,209,1189,5599
6832,30753,17362,-276,-4132,-537,-35,46,13389,872,-7,7,13381,848,-3362,3144667,165,208,1187,5582
6842,30763,17356,-250,-4062,-541,-43,44,13308,847,-6,7,13375,847,-3372,3130874,165,224,1186,5589
6852,30774,17360,-234,-4166,-539,-43,45,13384,808,-7,7,13379,845,-3382,3117860,166,215,1182,5605
6862,30784,17356,-276,-4072,-547,-42,45,13306,842,-6,7,13374,846,-3388,3104376,165,229,1186,5608
6872,30794,17336,-276,-4066,-545,-34,42,13227,875,-6,7,13369,847,-3393,3091522,165,242,1190,5610
6882,30804,17366,-244,-4080,-543,-37,44,13221,789,-6,7,13364,845,-3398,3080184,165,252,1183,5604
6893,30814,17330,-284,-4142,-535,-49,36,13295,830,-7,7,13367,846,-3402,3069522,165,247,1191,5614
6903,30825,17358,-274,-4114,-536,-41,39,13347,897,-7,7,13366,847,-3406,3060106,166,249,1195,5619
6913,30835,17322,-274,-4066,-536,-39,44,13262,888,-6,7,13361,848,-3409,3050828,165,261,1197,5617
6923,30845,17398,-292,-4148,-539,-41,45,13342,914,-7,7,13362,850,-3422,3043794,165,258,1211,5650
6933,30855,17384,-290,-4116,-544,-38,45,13273,964,-6,7,13361,852,-3430,3035912,165,262,1221,5666
6944,30865,17372,-248,-4024,-537,-39,41,13204,914,-5,7,13352,850,-3400,3027799,165,283,1192,5562
6954,30875,17372,-268,-4100,-532,-37,49,13272,865,-6,7,13350,851,-3401,3025407,165,289,1191,5555
6964,30886,17324,-266,-4118,-536,-42,45,13356,857,-7,7,13350,851,-3406,3023467,166,287,1193,5561
6974,30896,17342,-248,-4136,-538,-35,43,13415,795,-7,7,13351,850,-3401,3022007,165,282,1182,5535
6984,30906,17298,-224,-4154,-540,-33,42,13480,740,-8,7,13355,846,-3382,3021862,165,270,1157,5473
6994,30916,17320,-272,-4136,-543,-41,45,13450,821,-8,7,13357,847,-3388,3024594,165,264,1162,5484
7005,30926,17362,-252,-4172,-534,-43,42,13533,804,-9,7,13361,846,-3386,3027645,165,253,1157,5472
7015,30937,17382,-214,-4180,-533,-49,42,13525,718,-8,7,13366,842,-3379,3031510,166,241,1137,5439
7025,30947,17376,-250,-4140,-537,-52,43,13456,765,-7,7,13367,841,-3380,3036362,165,239,1133,5432
7035,30957,17396,-260,-4166,-537,-40,39,13470,849,-7,7,13370,840,-3375,3041623,165,232,1127,5411
7045,30967,17334,-256,-4146,-539,-42,49,13421,780,-6,7,13372,840,-3371,3047466,165,226,1122,5395
7056,30977,17362,-230,-4122,-537,-48,45,13350,734,-5,7,13372,837,-3386,3053897,165,227,1120,5418
7067,30987,17330,-232,-4130,-536,-47,44,13433,751,-6,7,13373,835,-3392,3059681,165,225,1114,5422
7076,30998,17350,-294,-4076,-537,-43,45,13370,809,-5,7,13369,838,-3410,3065384,166,236,1132,5464
7086,31008,17372,-266,-4078,-524,-41,42,13288,832,-3,7,13365,838,-3430,3070281,165,248,1144,5508
7096,31018,17374,-292,-4112,-536,-40,53,13309,916,-3,7,13363,842,-3441,3073952,165,252,1157,5535
7106,31028,17394,-280,-4106,-541,-39,49,13239,869,-2,7,13361,843,-3453,3077249,165,258,1166,5557
7117,31038,17322,-260,-4122,-538,-36,46,13321,851,-3,7,13361,843,-3454,3079740,165,256,1165,5552
7126,31049,17332,-286,-4038,-546,-36,53,13240,878,-3,7,13354,846,-3475,3082689,166,275,1181,5595
7137,31059,17294,-296,-4130,-544,-44,44,13319,909,-5,7,13356,849,-3495,3084114,165,270,1202,5649
7147,31069,17370,-276,-4152,-541,-38,43,13401,893,-6,7,13358,850,-3506,3084589,165,265,1210,5672
7157,31079,17382,-280,-4146,-540,-51,42,13483,917,-7,7,13360,851,-3516,3084801,165,261,1218,5694
7168,31089,17340,-244,-4134,-542,-48,49,13442,842,-7,7,13362,849,-3517,3084372,165,258,1211,5685
7177,31099,17344,-292,-4210,-538,-43,51,13519,879,-8,7,13369,852,-3532,3084834,165,239,1228,5728
7188,31110,17332,-222,-4174,-541,-44,44,13530,793,-9,7,13374,848,-3554,3084252,167,227,1228,5772
7198,31120,17322,-232,-4180,-541,-43,42,13583,724,-9,7,13379,845,-3570,3081838,165,214,1229,5805
7208,31130,17338,-270,-4150,-546,-42,39,13527,789,-9,7,13381,845,-3567,3078319,165,208,1227,5790
7218,31140,17374,-246,-4096,-543,-41,43,13444,789,-8,7,13378,844,-3585,3076563,165,217,1230,5821
7229,31150,17320,-254,-4136,-536,-45,43,13407,867,-7,7,13380,843,-3591,3073089,165,213,1230,5827
7239,31161,17366,-324,-4138,-531,-52,41,13405,953,-7,7,13381,848,-3556,3070387,166,210,1223,5741
7249,31171,17326,-270,-4160,-537,-44,44,13469,896,-8,7,13385,849,-3558,3072348,165,202,1225,5742
7259,31181,17330,-252,-4136,-540,-47,50,13429,821,-7,7,13386,848,-3572,3074725,165,200,1228,5767
7269,31191,17362,-258,-4124,-531,-49,44,13346,830,-5,7,13386,848,-3579,3076547,165,202,1229,5777
7280,31201,17354,-270,-4086,-535,-43,40,13267,860,-4,7,13382,848,-3577,3078176,165,211,1226,5760
7290,31212,17356,-242,-4068,-543,-47,43,13209,797,-3,7,13378,846,-3589,3080739,166,224,1224,5772
7300,31222,17324,-230,-4102,-541,-51,42,13285,758,-4,7,13377,843,-3602,3082707,165,229,1220,5789
7310,31232,17348,-274,-4018,-541,-47,45,13209,796,-4,7,13368,844,-3620,3084035,165,253,1230,5820
7320,31242,17394,-282,-4118,-543,-37,46,13269,855,-5,7,13366,845,-3630,3084560,169,256,1238,5838
7331,31252,17340,-252,-4114,-544,-39,45,13342,812,-6,7,13366,844,-3631,3084422,165,257,1233,5827
7341,31262,17344,-304,-4110,-543,-43,36,13336,898,-6,7,13365,847,-3648,3085110,165,261,1253,5870
7351,31273,17332,-304,-4160,-546,-41,44,13412,935,-8,7,13368,851,-3670,3084593,166,252,1275,5925
7361,31283,17356,-312,-4096,-545,-40,40,13336,973,-7,7,13366,854,-3675,3082524,165,259,1288,5935
7371,31293,17334,-266,-4154,-544,-44,42,13402,918,-9,7,13369,854,-3693,3080735,165,252,1298,5975
7382,31303,17366,-282,-4244,-543,-47,37,13486,914,-10,7,13378,855,-3742,3078118,165,230,1331,6102
7392,31313,17380,-266,-4208,-539,-39,46,13562,876,-12,7,13384,855,-3776,3069853,165,216,1352,6188
7402,31324,17318,-274,-4156,-537,-41,42,13477,882,-10,7,13387,855,-3790,3056082,165,209,1361,6219
7412,31334,17386,-246,-4178,-531,-49,39,13508,801,-10,7,13391,853,-3824,3042961,165,202,1375,6298
7423,31344,17336,-216,-4186,-542,-47,44,13554,727,-11,7,13396,849,-3887,3024457,165,192,1400,6446
7433,31355,17370,-236,-4144,-548,-36,43,13471,744,-10,7,13396,846,-3921,2995557,166,191,1410,6516
7443,31365,17346,-216,-4130,-545,-40,46,13399,698,-10,7,13396,842,-3972,2961547,165,193,1425,6627
7453,31375,17324,-246,-4152,-537,-40,40,13455,764,-10,7,13398,841,-3987,2918316,165,188,1429,6655
7464,31385,17358,-256,-4138,-532,-42,38,13401,830,-9,7,13398,840,-3996,2877269,165,188,1431,6668
7474,31396,17360,-264,-4050,-535,-43,47,13317,836,-7,7,13391,840,-4011,2837844,165,206,1436,6692
7484,31406,17364,-226,-4156,-535,-35,50,13383,784,-8,8,13392,838,-4033,2800243,165,202,1438,6733
7494,31416,17346,-258,-4096,-533,-39,45,13306,820,-6,7,13389,838,-4048,2760660,165,210,1444,6760
7504,31426,17338,-304,-4136,-543,-37,46,13355,890,-8,7,13390,842,-4026,2722006,165,207,1439,6699
7514,31436,17344,-282,-4102,-535,-50,43,13275,917,-6,7,13388,843,-4022,2692626,165,212,1439,6680
7525,31446,17394,-276,-4086,-538,-47,43,13202,875,-5,7,13384,844,-4022,2668531,165,223,1439,6670
7535,31457,17374,-262,-4142,-543,-44,48,13285,861,-6,7,13385,844,-4027,2646896,166,221,1439,6671
7545,31467,17334,-254,-4054,-529,-49,45,13205,832,-5,7,13379,844,-4032,2625733,165,237,1437,6669
7555,31477,17346,-302,-4116,-536,-47,48,13267,892,-5,7,13379,848,-4036,2606596,165,239,1447,6673
7565,31487,17332,-262,-4152,-541,-44,38,13349,871,-7,7,13382,847,-4042,2589100,165,233,1448,6681
7576,31497,17352,-252,-4198,-535,-42,42,13431,851,-8,7,13387,846,-4050,2573383,165,219,1449,6695
7586,31508,17304,-284,-4124,-536,-44,40,13398,931,-7,7,13388,847,-4047,2557212,166,218,1451,6682
7596,31518,17326,-272,-4126,-537,-42,42,13393,844,-7,7,13388,848,-4048,2543865,165,217,1451,6678
7606,31528,17336,-270,-4074,-532,-43,42,13309,856,-5,7,13384,849,-4042,2532054,165,228,1446,6651
7616,31538,17366,-278,-4182,-537,-37,38,13392,868,-6,7,13387,849,-4051,2523339,165,218,1453,6668
7627,31548,17352,-252,-4158,-536,-38,42,13461,819,-7,7,13389,848,-4063,2514644,165,213,1456,6689
7637,31558,17356,-278,-4152,-537,-44,45,13452,905,-6,7,13391,849,-4064,2505821,165,208,1458,6688
7647,31569,17360,-296,-4094,-531,-40,40,13370,925,-4,7,13388,852,-4047,2498025,166,216,1453,6638
7657,31579,17328,-204,-4074,-533,-41,49,13330,849,-3,7,13383,847,-4053,2492987,165,226,1438,6629
7667,31589,17378,-236,-4102,-534,-38,38,13290,774,-2,7,13381,844,-4056,2488931,165,232,1430,6623
7677,31599,17360,-220,-4092,-535,-47,42,13258,693,-2,7,13378,841,-4060,2485243,165,240,1419,6614
7688,31609,17350,-224,-4092,-542,-45,44,13294,771,-2,7,13375,837,-4065,2482011,165,247,1409,6607
7698,31620,17358,-286,-4074,-540,-47,38,13251,845,-1,7,13371,839,-4088,2479296,167,258,1426,6655
7708,31630,17316,-260,-4114,-537,-44,36,13336,838,-2,7,13371,838,-4092,2474797,165,259,1426,6656
7718,31640,17320,-240,-4092,-534,-42,37,13288,766,-1,7,13369,836,-4092,2470882,165,264,1418,6641
7728,31650,17324,-218,-4124,-544,-47,43,13360,719,-3,7,13370,832,-4074,2467987,165,261,1395,6582
7738,31660,17362,-262,-4144,-540,-46,44,13401,795,-3,7,13372,832,-4073,2467795,165,258,1392,6570
7749,31670,17342,-276,-4062,-538,-43,44,13322,828,-2,7,13367,834,-4105,2468178,165,271,1412,6636
7759,31681,17360,-314,-4122,-539,-44,37,13339,912,-2,7,13366,838,-4138,2466737,166,273,1442,6718
7769,31691,17316,-260,-4042,-533,-42,42,13259,883,0,7,13360,838,-4149,2462354,165,288,1445,6730
7779,31701,17380,-322,-4090,-533,-45,44,13249,968,0,7,13357,843,-4201,2458341,165,298,1488,6856
7789,31711,17388,-278,-4130,-537,-43,44,13318,920,-1,7,13357,844,-4218,2449696,165,298,1498,6888
7799,31721,17348,-332,-4076,-543,-42,44,13271,992,0,7,13354,850,-4274,2439797,165,309,1545,7021
7810,31731,17352,-324,-4156,-534,-41,54,13352,1013,-2,7,13357,856,-4343,2424197,165,304,1598,7194
7820,31742,17382,-260,-4096,-535,-37,49,13312,937,-1,7,13354,856,-4326,2400286,166,310,1583,7139
7830,31752,17366,-274,-4144,-539,-39,42,13386,897,-2,7,13355,856,-4346,2381517,165,306,1595,7180
7840,31762,17340,-306,-4168,-541,-38,48,13457,944,-3,7,13359,860,-4404,2361601,165,298,1636,7319
7850,31772,17422,-290,-4170,-537,-50,45,13474,861,-4,7,13362,862,-4437,2337004,165,293,1658,7393
7860,31782,17386,-264,-4178,-540,-40,41,13552,829,-5,7,13366,861,-4466,2309047,165,285,1672,7457
7870,31792,17360,-264,-4128,-534,-45,37,13469,837,-3,7,13366,860,-4470,2278299,165,285,1671,7457
7881,31803,17346,-304,-4068,-531,-41,48,13394,877,-1,7,13362,864,-4455,2249472,166,295,1668,7411
7891,31813,17326,-218,-4106,-540,-42,45,13365,795,-1,7,13361,859,-4428,2225941,165,295,1637,7328
7901,31823,17370,-254,-4118,-535,-42,41,13295,843,0,7,13360,858,-4422,2209743,165,296,1628,7301
7911,31833,17346,-226,-4120,-537,-43,48,13337,769,0,7,13360,855,-4406,2195752,165,295,1606,7245
7921,31843,17350,-250,-4076,-540,-39,43,13256,792,0,7,13356,854,-4390,2185283,165,303,1589,7190
7931,31853,17356,-278,-4128,-533,-40,42,13321,845,0,7,13357,855,-4402,2178121,165,302,1597,7212
7942,31863,17368,-228,-4078,-531,-42,44,13263,784,1,7,13353,851,-4373,2170839,165,310,1568,7124
7952,31873,17356,-226,-4162,-530,-38,43,13343,763,0,7,13356,848,-4356,2167310,165,301,1548,7072
7962,31884,17382,-268,-4166,-532,-40,45,13411,811,0,7,13359,849,-4362,2166019,166,294,1551,7081
7972,31894,17338,-264,-4126,-531,-39,39,13362,881,1,7,13359,848,-4366,2164621,169,292,1551,7083
7982,31904,17338,-304,-4112,-540,-46,40,13345,965,2,7,13359,852,-4385,2163558,165,294,1569,7124
7992,31914,17388,-258,-4080,-530,-43,37,13285,906,3,7,13355,851,-4378,2162000,165,303,1561,7094
8002,31924,17384,-276,-4156,-532,-43,46,13367,895,3,7,13357,852,-4390,2161578,165,298,1568,7118
8012,31934,17350,-276,-4200,-533,-41,40,13450,892,2,7,13364,852,-4409,2160784,165,283,1581,7161
8022,31944,17314,-304,-4150,-540,-39,44,13477,973,1,7,13367,856,-4427,2158989,165,277,1599,7203
8032,31954,17338,-246,-4084,-539,-35,50,13411,920,2,7,13363,854,-4419,2156574,165,283,1586,7168
8042,31964,17394,-266,-4090,-532,-41,43,13333,891,4,7,13360,854,-4414,2155799,165,290,1580,7142
8053,31974,17338,-224,-4110,-539,-35,39,13334,805,4,7,13358,851,-4403,2155711,165,291,1562,7102
8063,31985,17318,-286,-4110,-547,-44,49,13346,890,3,7,13358,853,-4415,2156736,166,292,1571,7120
8073,31995,17350,-312,-4214,-539,-40,44,13424,919,2,7,13366,856,-4445,2157813,166,276,1598,7196
8083,32005,17340,-256,-4134,-540,-38,43,13411,834,2,7,13366,855,-4453,2157359,165,273,1598,7203
8093,32015,17360,-308,-4100,-543,-34,42,13357,900,2,7,13364,859,-4452,2157059,165,278,1604,7193
8103,32025,17332,-296,-4110,-539,-43,38,13330,981,3,7,13363,861,-4456,2157301,165,279,1610,7196
8113,32035,17324,-248,-4110,-545,-43,40,13337,895,2,7,13363,859,-4456,2157799,165,280,1603,7182
8123,32045,17342,-306,-4128,-544,-46,47,13381,969,1,7,13364,862,-4468,2158920,165,279,1616,7205
8133,32055,17352,-252,-4140,-550,-49,43,13401,886,0,7,13366,861,-4479,2159877,165,276,1616,7218
8143,32065,17358,-264,-4164,-541,-51,40,13479,852,0,7,13370,860,-4498,2160752,165,269,1624,7256
8154,32075,17344,-216,-4160,-546,-44,44,13484,766,-1,7,13373,855,-4520,2160892,165,263,1622,7291
8165,32086,17350,-268,-4150,-543,-43,45,13456,847,-1,7,13375,856,-4529,2160286,166,258,1626,7305
8174,32096,17340,-288,-4146,-538,-39,40,13445,933,0,7,13377,857,-4534,2159584,165,254,1631,7310
8184,32106,17354,-246,-4106,-534,-40,40,13388,871,0,7,13375,855,-4538,2159172,165,258,1626,7306
8194,32116,17368,-212,-4102,-540,-37,39,13348,795,0,7,13372,850,-4547,2159122,165,263,1616,7309
8204,32126,17348,-240,-4134,-540,-45,38,13425,760,0,7,13373,848,-4556,2158952,165,261,1613,7316
8214,32136,17322,-314,-4118,-533,-47,38,13408,844,0,7,13373,852,-4551,2158684,165,261,1620,7302
8224,32146,17336,-290,-4098,-535,-38,46,13342,898,2,7,13371,854,-4547,2159311,165,265,1621,7287
8234,32156,17310,-266,-4114,-541,-37,38,13388,825,1,7,13371,854,-4552,2160533,165,265,1621,7286
8245,32166,17322,-276,-4094,-541,-36,34,13318,873,2,7,13368,854,-4550,2162012,165,270,1620,7273
8255,32177,17336,-284,-4096,-538,-38,49,13273,946,3,7,13366,856,-4549,2164044,165,274,1621,7260
8265,32187,17358,-246,-4188,-538,-41,48,13346,907,1,7,13371,854,-4568,2166633,166,263,1626,7297
8275,32197,17390,-322,-4120,-535,-46,46,13334,992,2,7,13370,859,-4563,2168683,165,265,1632,7281
8285,32207,17364,-242,-4128,-535,-49,44,13350,908,2,7,13371,857,-4569,2171270,165,265,1628,7283
8295,32217,17368,-280,-4170,-541,-41,46,13433,902,0,7,13374,858,-4584,2173947,165,258,1637,7310
8305,32227,17344,-290,-4176,-544,-44,40,13514,924,0,7,13378,860,-4599,2176235,165,249,1649,7343
8315,32237,17346,-260,-4144,-537,-40,44,13458,861,0,7,13380,859,-4612,2178080,165,246,1652,7364
8325,32247,17372,-258,-4104,-539,-43,44,13377,844,1,7,13377,858,-4611,2179674,165,251,1647,7347
8335,32257,17340,-268,-4150,-546,-43,39,13459,860,0,7,13380,858,-4623,2181713,165,246,1651,7366
8345,32267,17304,-292,-4090,-542,-46,42,13384,898,0,7,13378,860,-4611,2183388,165,251,1647,7328
8355,32277,17380,-226,-4212,-531,-40,43,13452,848,0,7,13384,857,-4651,2186360,165,238,1660,7412
8366,32288,17356,-230,-4102,-527,-39,42,13383,800,1,7,13381,854,-4664,2187468,166,243,1656,7429
8376,32298,17308,-232,-4136,-536,-39,42,13445,741,1,7,13383,851,-4683,2188054,166,240,1657,7460
8386,32308,17350,-278,-4112,-542,-36,44,13394,809,1,7,13381,852,-4682,2188093,165,243,1657,7447
8396,32318,17374,-298,-4120,-543,-34,41,13364,889,2,7,13379,854,-4674,2188881,165,245,1657,7422
8406,32328,17352,-224,-4140,-534,-40,41,13390,808,2,7,13380,851,-4693,2190544,165,243,1656,7452
8416,32338,17348,-246,-4122,-537,-37,37,13321,758,3,7,13379,848,-4703,2191531,165,244,1655,7463
8426,32348,17306,-304,-4126,-537,-45,49,13353,838,3,7,13380,852,-4694,2192225,165,242,1657,7437
8436,32358,17316,-290,-4130,-541,-41,48,13399,910,2,7,13381,855,-4691,2194003,165,240,1658,7424
8446,32368,17336,-298,-4016,-544,-41,47,13316,921,2,7,13372,858,-4664,2196344,165,259,1647,7348
8457,32378,17366,-304,-4142,-540,-32,42,13389,961,1,7,13372,861,-4671,2200300,165,257,1656,7358
8467,32388,17346,-300,-4170,-542,-46,47,13473,963,0,7,13376,863,-4689,2204234,165,249,1671,7395
8477,32399,17330,-326,-4088,-544,-38,44,13395,996,0,7,13373,868,-4667,2207669,166,254,1669,7339
8487,32409,17370,-258,-4136,-538,-40,45,13394,911,0,7,13374,867,-4676,2212151,166,253,1669,7349
8497,32419,17388,-228,-4152,-543,-47,43,13411,827,0,7,13375,864,-4695,2216577,165,251,1667,7376
8507,32429,17360,-278,-4156,-544,-52,42,13465,893,0,7,13378,864,-4709,2220624,165,246,1675,7402
8517,32439,17380,-278,-4106,-544,-36,49,13381,893,0,7,13376,865,-4701,2224402,165,250,1669,7370
8527,32449,17328,-278,-4178,-534,-42,42,13465,893,-1,7,13381,866,-4728,2228683,165,241,1685,7430
8537,32459,17358,-230,-4174,-536,-40,46,13494,812,-1,7,13384,863,-4765,2232245,165,234,1694,7501
8548,32469,17390,-264,-4172,-543,-53,44,13486,897,-1,7,13387,862,-4782,2234532,165,229,1701,7532
8558,32480,17332,-254,-4130,-546,-47,47,13425,838,-1,7,13388,861,-4796,2236078,167,228,1702,7550
8568,32490,17340,-230,-4144,-546,-52,53,13439,753,-1,7,13390,859,-4825,2237352,165,226,1707,7601
8578,32500,17334,-258,-4166,-535,-47,50,13499,814,-2,7,13394,858,-4840,2237346,165,219,1712,7626
8588,32510,17410,-218,-4176,-541,-41,43,13491,729,-2,7,13396,854,-4877,2237243,165,215,1720,7698
8599,32520,17342,-194,-4088,-535,-41,47,13414,693,-1,7,13393,849,-4933,2234467,165,225,1731,7802
8609,32531,17410,-184,-4164,-534,-43,48,13443,612,-1,7,13394,842,-4975,2228277,166,222,1735,7879
8619,32541,17366,-228,-4030,-539,-45,40,13362,637,0,7,13386,839,-5044,2218018,169,243,1760,8013
8629,32551,17368,-236,-4098,-538,-45,47,13313,706,0,7,13383,837,-5073,2201071,165,250,1767,8064
8639,32561,17362,-260,-4104,-540,-43,44,13304,791,0,7,13381,837,-5093,2182160,165,255,1775,8096
8649,32571,17390,-266,-4108,-543,-37,43,13286,874,0,7,13378,837,-5113,2163297,165,261,1783,8129
8659,32581,17344,-254,-4066,-542,-42,40,13214,829,1,7,13373,837,-5149,2142886,165,273,1797,8193
8669,32591,17344,-278,-4140,-539,-49,38,13294,853,0,7,13375,838,-5148,2120285,165,270,1798,8182
8679,32601,17384,-272,-4166,-535,-51,43,13378,861,0,7,13378,838,-5139,2101324,165,264,1794,8155
8689,32611,17326,-276,-4114,-541,-47,45,13325,928,0,7,13378,840,-5147,2084393,165,265,1798,8164
8700,32621,17304,-284,-4114,-542,-48,49,13406,906,-1,7,13379,842,-5154,2068129,165,266,1804,8170
8710,32632,17332,-220,-4112,-538,-42,43,13381,823,-1,7,13378,838,-5159,2053547,166,267,1795,8165
8720,32642,17362,-296,-4056,-540,-49,43,13307,864,0,7,13372,841,-5194,2040411,165,281,1817,8230
8730,32652,17388,-282,-4084,-541,-42,40,13231,898,1,7,13368,843,-5217,2025499,165,290,1830,8269
8740,32662,17364,-258,-4144,-541,-39,41,13309,869,0,7,13369,842,-5216,2009584,165,287,1826,8257
8750,32672,17294,-306,-4150,-535,-43,43,13380,914,-1,7,13373,846,-5225,1994588,165,280,1839,8275
8760,32682,17344,-290,-4118,-539,-42,45,13311,964,0,7,13372,848,-5236,1981071,165,281,1848,8290
8771,32692,17342,-280,-4202,-539,-41,42,13393,947,-1,7,13379,849,-5240,1968271,165,268,1852,8295
8781,32703,17366,-272,-4130,-545,-41,39,13375,862,-1,7,13379,849,-5245,1956798,166,268,1853,8296
8791,32713,17362,-240,-4112,-546,-36,46,13333,787,-1,7,13377,847,-5250,1946178,165,271,1847,8290
8801,32723,17336,-274,-4130,-542,-45,50,13383,857,-2,7,13378,849,-5256,1936322,165,270,1850,8292
8811,32733,17378,-244,-4100,-540,-39,47,13313,809,-1,7,13375,847,-5260,1927678,165,275,1845,8286
8821,32743,17342,-246,-4096,-539,-43,35,13246,756,0,7,13372,845,-5264,1919490,165,280,1840,8281
8831,32753,17306,-220,-4180,-532,-43,33,13329,743,0,7,13378,841,-5252,1911901,165,268,1824,8245
8842,32763,17384,-296,-4116,-530,-34,43,13324,829,0,7,13376,843,-5260,1906870,165,271,1832,8256
8852,32774,17374,-242,-4100,-538,-42,50,13268,766,0,7,13373,842,-5267,1901962,166,276,1828,8256
8862,32784,17324,-268,-4104,-537,-35,40,13312,838,0,8,13372,842,-5275,1897032,165,279,1831,8263
8872,32794,17372,-244,-4116,-539,-44,44,13337,757,0,7,13371,841,-5279,1892749,165,281,1827,8258
8882,32804,17346,-254,-4110,-536,-46,43,13326,842,0,7,13370,840,-5284,1888831,165,283,1825,8259
8892,32814,17356,-310,-4190,-541,-46,47,13398,886,0,7,13375,844,-5286,1885493,165,273,1834,8259
8902,32824,17352,-264,-4076,-549,-44,46,13316,869,0,7,13371,844,-5296,1882628,165,281,1836,8265
8912,32834,17360,-250,-4078,-544,-42,42,13247,821,0,7,13367,843,-5302,1879945,165,290,1833,8263
8922,32844,17288,-256,-4134,-535,-33,45,13330,823,0,7,13369,843,-5302,1877237,165,285,1829,8253
8933,32854,17384,-308,-4154,-539,-42,45,13377,893,-1,7,13371,846,-5313,1875749,165,282,1842,8273
8943,32865,17396,-258,-4106,-544,-38,45,13307,845,0,7,13368,846,-5318,1874213,166,286,1840,8269
8953,32875,17340,-266,-4112,-543,-37,45,13387,868,-2,7,13367,846,-5324,1872730,166,288,1841,8271
8963,32885,17318,-280,-4074,-543,-49,46,13305,886,-1,7,13364,848,-5334,1871406,165,295,1846,8280
8973,32895,17302,-242,-4154,-537,-44,50,13379,846,-2,7,13368,846,-5332,1870109,165,287,1839,8266
8983,32905,17330,-244,-4160,-535,-38,41,13454,806,-3,7,13371,845,-5330,1869646,165,280,1832,8253
8993,32915,17378,-220,-4162,-540,-44,48,13466,721,-3,7,13373,841,-5328,1869923,165,275,1820,8234
9004,32926,17330,-224,-4162,-535,-48,41,13551,717,-4,7,13377,838,-5323,1870633,166,267,1808,8212
9014,32936,17344,-226,-4128,-537,-45,37,13468,721,-2,7,13378,835,-5328,1871976,165,267,1802,8211
9024,32946,17348,-226,-4116,-538,-42,39,13384,724,-1,7,13377,831,-5338,1873434,165,268,1797,8218
9034,32956,17328,-240,-4170,-533,-42,41,13464,749,-2,7,13381,830,-5322,1874797,165,259,1784,8176
9044,32966,17394,-262,-4078,-531,-43,39,13384,776,0,7,13376,830,-5352,1877175,165,270,1797,8228
9054,32976,17412,-270,-4100,-535,-49,38,13315,821,1,7,13374,830,-5373,1878721,165,277,1807,8262
9065,32986,17368,-266,-4082,-536,-41,40,13236,850,2,7,13370,830,-5396,1879577,165,285,1817,8301
9075,32997,17400,-324,-4036,-538,-37,46,13177,912,3,7,13361,836,-5448,1879779,166,303,1852,8402
9085,33007,17360,-264,-4040,-534,-44,45,13112,858,4,7,13355,836,-5470,1877395,165,318,1861,8436
9095,33017,17362,-274,-4108,-545,-49,49,13195,867,3,7,13354,838,-5487,1874296,165,321,1869,8460
9105,33027,17368,-262,-4154,-537,-42,46,13278,859,1,7,13356,838,-5487,1870980,165,315,1867,8452
9115,33037,17338,-274,-4146,-534,-44,28,13361,868,1,7,13359,838,-5494,1868187,165,311,1872,8461
9125,33047,17364,-244,-4162,-529,-45,45,13429,819,1,7,13362,837,-5486,1865766,165,304,1863,8435
9135,33057,17354,-286,-4062,-532,-40,37,13351,849,2,7,13357,839,-5509,1864291,165,315,1876,8473
9145,33067,17350,-256,-4134,-536,-35,41,13424,809,1,7,13358,838,-5509,1862096,165,312,1873,8465
9155,33077,17344,-242,-4170,-537,-41,43,13504,782,1,7,13362,836,-5500,1860492,165,303,1863,8435
9165,33087,17360,-226,-4116,-532,-45,41,13425,755,2,7,13361,833,-5494,1860001,165,304,1851,8410
9176,33098,17362,-228,-4156,-533,-39,43,13496,709,2,7,13364,831,-5481,1860304,166,298,1836,8371
9186,33108,17316,-258,-4118,-545,-44,43,13437,769,2,7,13364,831,-5485,1861460,166,297,1836,8368
9196,33118,17360,-250,-4052,-540,-41,43,13353,778,3,7,13358,830,-5508,1862905,165,310,1842,8402
9206,33128,17358,-240,-4114,-542,-37,48,13275,748,4,7,13357,828,-5508,1863739,165,311,1836,8388
9216,33138,17360,-266,-4132,-543,-45,41,13337,805,3,7,13358,829,-5513,1864992,165,309,1837,8390
9226,33148,17340,-264,-4078,-544,-48,42,13260,838,4,7,13355,829,-5533,1866324,165,317,1846,8419
9236,33158,17324,-268,-4060,-541,-47,35,13180,865,5,7,13351,829,-5559,1867101,165,326,1857,8461
9246,33168,17374,-252,-4086,-540,-43,43,13238,803,4,7,13348,829,-5569,1867244,165,332,1858,8470
9256,33178,17390,-208,-4122,-540,-41,44,13287,734,3,7,13348,825,-5542,1867404,165,332,1832,8397
9266,33188,17316,-234,-4106,-539,-40,46,13365,762,2,7,13347,823,-5533,1868960,169,332,1821,8364
9277,33198,17370,-274,-4120,-544,-40,47,13349,846,2,7,13347,824,-5550,1871287,165,333,1830,8391
9287,33209,17344,-298,-4100,-531,-41,43,13314,925,3,7,13346,828,-5587,1873254,166,336,1854,8462
9297,33219,17318,-296,-4086,-531,-44,40,13245,974,5,8,13344,831,-5623,1873923,165,341,1878,8534
9307,33229,17352,-294,-4116,-534,-42,43,13325,950,4,7,13344,834,-5653,1873289,165,342,1897,8589
9317,33239,17372,-294,-4100,-534,-41,43,13242,938,6,7,13342,837,-5682,1871605,165,346,1916,8642
9327,33249,17358,-282,-4124,-532,-35,41,13322,916,5,7,13342,838,-5702,1868692,165,345,1927,8677
9337,33259,17354,-278,-4206,-536,-42,49,13406,910,4,7,13349,840,-5722,1865261,165,332,1939,8715
9347,33269,17356,-288,-4148,-534,-42,42,13483,941,3,7,13351,842,-5741,1861166,165,328,1952,8749
9357,33279,17350,-320,-4130,-536,-40,41,13421,998,4,7,13352,847,-5769,1856440,165,327,1975,8804
9367,33289,17390,-272,-4142,-540,-38,49,13405,915,4,7,13353,848,-5781,1850847,165,325,1979,8818
9377,33299,17342,-236,-4122,-542,-36,44,13386,832,4,7,13353,846,-5780,1844892,165,323,1971,8802
9388,33310,17388,-252,-4142,-542,-37,47,13424,756,3,7,13354,845,-5785,1840383,167,321,1969,8801
9398,33320,17336,-232,-4146,-538,-45,38,13502,723,3,7,13356,842,-5789,1836002,167,316,1962,8796
9408,33330,17342,-224,-4142,-544,-47,42,13419,718,3,7,13359,838,-5790,1832256,165,312,1953,8785
9418,33340,17386,-232,-4118,-545,-33,50,13338,740,4,7,13357,836,-5793,1829406,165,313,1946,8775
9428,33350,17344,-210,-4094,-536,-37,45,13282,676,5,7,13355,832,-5792,1826864,165,317,1933,8758
9438,33360,17364,-254,-4132,-541,-40,40,13332,743,4,7,13355,831,-5795,1825152,165,315,1931,8752
9448,33370,17344,-260,-4120,-539,-43,42,13359,824,4,7,13356,831,-5800,1823781,165,315,1931,8752
9458,33380,17342,-260,-4128,-536,-40,46,13437,853,3,7,13356,832,-5803,1822710,165,313,1930,8749
9468,33390,17374,-286,-4136,-541,-40,47,13387,921,4,7,13357,834,-5810,1822131,165,312,1936,8755
9478,33400,17356,-276,-4160,-537,-39,45,13465,891,2,7,13360,835,-5812,1821689,165,305,1938,8752
9488,33410,17356,-244,-4068,-541,-40,48,13387,861,3,7,13355,834,-5821,1821528,165,314,1936,8754
9499,33421,17332,-234,-4070,-537,-43,36,13315,815,5,7,13351,832,-5826,1821373,166,321,1931,8751
9509,33431,17352,-264,-4066,-538,-44,41,13234,836,6,7,13347,832,-5840,1821467,165,330,1936,8768
9519,33441,17376,-306,-4046,-532,-39,45,13178,900,7,7,13341,836,-5870,1821394,165,343,1956,8823
9529,33451,17332,-344,-4114,-527,-43,48,13233,966,7,7,13341,843,-5918,1820075,165,344,1994,8921
9539,33461,17384,-282,-4166,-534,-46,48,13314,946,6,7,13345,845,-5939,1816795,165,338,2006,8957
9549,33471,17380,-278,-4138,-532,-46,44,13383,898,5,7,13346,847,-5953,1812828,165,336,2013,8977
9559,33481,17334,-280,-4120,-532,-46,40,13300,911,7,7,13347,848,-5965,1808400,165,335,2020,8994
9569,33491,17392,-258,-4158,-534,-47,36,13373,868,7,7,13350,847,-5976,1804362,165,331,2022,9007
9579,33501,17378,-274,-4134,-536,-38,39,13424,935,6,7,13350,847,-5986,1800252,165,329,2026,9018
9589,33511,17332,-256,-4180,-541,-35,46,13489,881,5,7,13355,847,-6006,1796033,165,319,2033,9052
9600,33522,17344,-248,-4188,-535,-39,49,13549,822,4,7,13361,846,-6026,1791348,166,309,2038,9083
9610,33532,17342,-274,-4122,-542,-41,48,13470,848,5,7,13361,847,-6032,1786005,166,308,2039,9083
9620,33542,17338,-278,-4142,-537,-37,45,13418,916,6,7,13362,848,-6040,1781220,165,305,2044,9093
9630,33552,17342,-296,-4176,-540,-44,48,13499,939,5,7,13367,851,-6054,1776762,165,296,2054,9114
9640,33562,17390,-254,-4134,-541,-36,45,13439,880,5,7,13367,850,-6063,1772475,165,296,2054,9121
9650,33572,17372,-284,-4136,-538,-45,46,13368,926,6,7,13368,852,-6066,1768286,165,295,2056,9117
9660,33582,17348,-252,-4116,-534,-41,47,13353,842,7,7,13367,851,-6072,1764535,165,296,2054,9119
9670,33592,17392,-234,-4098,-541,-42,47,13292,784,8,7,13364,849,-6076,1761331,165,301,2047,9111
9680,33602,17342,-214,-4076,-534,-41,45,13244,714,9,7,13360,845,-6081,1758297,165,308,2037,9104
9691,33612,17352,-240,-4140,-535,-43,47,13323,739,8,7,13362,843,-6089,1755818,165,305,2034,9108
9701,33623,17358,-232,-4072,-540,-47,38,13240,743,9,7,13358,840,-6096,1753476,166,313,2029,9106
9711,33633,17368,-264,-4096,-537,-44,45,13263,825,9,7,13356,840,-6102,1751446,166,317,2030,9108
9720,33643,17388,-260,-4132,-534,-43,39,13346,831,8,7,13356,840,-6107,1749778,165,317,2029,9107
9731,33653,17366,-256,-4088,-536,-42,37,13263,823,10,7,13353,839,-6113,1748272,165,322,2028,9108
9741,33663,17386,-238,-4090,-544,-40,45,13229,744,10,7,13350,837,-6117,1747099,165,328,2023,9101
9751,33673,17330,-242,-4110,-541,-46,37,13310,768,9,7,13350,835,-6119,1746054,165,328,2018,9091
9761,33683,17340,-316,-4078,-542,-44,43,13285,849,9,7,13347,840,-6143,1745447,165,334,2037,9132
9771,33693,17348,-318,-4096,-536,-43,38,13284,935,9,7,13346,844,-6166,1744199,165,338,2055,9172
9782,33703,17354,-310,-4162,-542,-43,50,13365,959,8,7,13349,848,-6192,1742375,165,332,2074,9220
9792,33714,17380,-298,-4106,-542,-51,44,13282,955,9,7,13349,851,-6202,1739780,166,335,2082,9230
9802,33724,17342,-288,-4132,-534,-45,44,13363,935,8,7,13350,853,-6218,1737128,166,333,2092,9255
9812,33734,17378,-288,-4130,-530,-43,38,13396,856,8,7,13351,855,-6229,1734372,165,332,2099,9271
9822,33744,17342,-278,-4120,-535,-33,44,13339,920,9,7,13350,856,-6239,1731362,165,332,2103,9281
9832,33754,17342,-262,-4144,-532,-39,40,13405,868,8,7,13352,855,-6254,1728499,165,328,2108,9301
9842,33764,17366,-282,-4136,-532,-43,42,13384,950,9,7,13353,856,-6266,1725555,165,326,2114,9317
9852,33774,17344,-332,-4156,-536,-34,48,13436,1018,9,7,13356,862,-6292,1722476,165,321,2136,9366
9862,33784,17360,-264,-4076,-543,-37,47,13368,967,9,7,13352,862,-6273,1718514,165,327,2123,9315
9872,33794,17314,-216,-4180,-544,-44,48,13419,899,8,7,13358,858,-6307,1716226,165,317,2128,9370
9883,33805,17382,-296,-4114,-535,-45,51,13344,936,9,7,13357,861,-6307,1712982,166,319,2129,9359
9893,33815,17344,-224,-4150,-540,-35,49,13383,861,8,7,13359,857,-6326,1710290,166,314,2128,9383
9903,33825,17388,-246,-4090,-534,-41,40,13308,824,10,7,13356,855,-6320,1707367,165,320,2119,9359
9913,33835,17362,-258,-4106,-544,-43,44,13265,898,10,7,13354,855,-6322,1705293,169,322,2115,9349
9924,33845,17340,-298,-4052,-543,-39,39,13190,938,11,7,13349,857,-6313,1703596,165,332,2114,9320
9933,33855,17382,-230,-4118,-538,-40,36,13238,867,11,7,13348,853,-6310,1703087,165,332,2103,9299
9944,33865,17346,-292,-4034,-546,-51,44,13162,904,11,7,13342,856,-6303,1703025,165,344,2101,9272
9954,33876,17328,-264,-4106,-544,-49,41,13243,878,10,7,13342,855,-6307,1703671,166,345,2099,9268
9964,33886,17324,-260,-4110,-537,-43,48,13321,846,9,7,13342,855,-6310,1704541,165,345,2097,9263
9974,33896,17368,-220,-4098,-540,-44,41,13295,765,9,7,13341,851,-6293,1705691,165,347,2078,9214
9984,33906,17366,-296,-4096,-537,-39,49,13284,850,9,7,13339,854,-6309,1707688,165,351,2088,9235
9994,33916,17368,-266,-4102,-544,-38,43,13352,899,8,7,13337,854,-6311,1709478,165,353,2086,9228
10004,33926,17360,-250,-4094,-536,-40,47,13296,835,9,7,13335,853,-6305,1711438,165,356,2078,9202
10014,33936,17350,-212,-4142,-537,-40,46,13351,770,8,7,13337,848,-6286,1713809,165,351,2057,9152
10024,33946,17362,-228,-4114,-530,-43,41,13311,695,9,7,13337,845,-6275,1716802,165,350,2043,9117
10034,33956,17354,-234,-4146,-535,-40,50,13387,729,9,7,13339,843,-6266,1720110,165,345,2031,9086
10044,33967,17346,-258,-4136,-536,-39,45,13407,813,9,7,13341,843,-6266,1723641,166,342,2029,9078
10055,33977,17372,-286,-4104,-535,-37,50,13344,870,10,7,13339,846,-6280,1727243,166,344,2037,9097
10065,33987,17340,-250,-4166,-539,-46,50,13423,838,8,7,13344,845,-6277,1730794,165,336,2031,9081
10075,33997,17388,-266,-4136,-536,-44,48,13343,864,10,7,13345,845,-6282,1734435,165,334,2031,9080
10085,34007,17370,-274,-4194,-543,-41,48,13427,869,8,7,13351,846,-6283,1738130,165,324,2031,9074
10095,34017,17342,-280,-4180,-544,-41,41,13509,888,7,7,13356,848,-6284,1741848,165,314,2033,9070
10105,34027,17380,-306,-4154,-540,-40,44,13459,957,7,7,13358,851,-6284,1745605,165,310,2037,9062
10115,34037,17394,-214,-4094,-541,-42,42,13407,891,8,7,13355,847,-6296,1749398,165,315,2031,9070
10125,34048,17344,-292,-4150,-536,-43,48,13468,949,7,7,13357,849,-6297,1753163,166,311,2034,9065
10136,34058,17362,-284,-4168,-536,-37,49,13521,883,6,7,13361,851,-6300,1756961,166,304,2037,9063
10146,34068,17366,-288,-4092,-541,-43,47,13438,897,7,7,13358,853,-6297,1760770,165,309,2037,9049
10156,34078,17340,-274,-4094,-537,-47,41,13356,888,9,7,13357,854,-6298,1764613,165,312,2036,9041
10166,34088,17398,-276,-4068,-533,-46,40,13273,886,11,7,13352,854,-6295,1768466,165,321,2033,9022
10176,34098,17288,-236,-4100,-532,-44,38,13314,810,11,7,13352,852,-6298,1772358,165,321,2027,9017
10186,34108,17352,-254,-4092,-536,-43,43,13230,821,12,7,13350,851,-6301,1776257,165,325,2024,9010
10197,34118,17356,-226,-4100,-538,-42,45,13276,748,12,7,13348,847,-6302,1780157,165,328,2015,8997
10207,34129,17404,-210,-4180,-538,-46,44,13356,721,11,7,13352,843,-6298,1784048,166,320,2002,8977
10217,34139,17386,-248,-4120,-539,-37,47,13328,803,11,7,13351,842,-6304,1787900,165,321,1999,8976
10227,34149,17354,-258,-4148,-537,-48,48,13411,821,10,7,13354,842,-6303,1791761,165,317,1996,8966
10237,34159,17350,-294,-4212,-543,-39,50,13486,860,8,7,13361,845,-6290,1795593,165,303,1994,8935
10247,34169,17350,-222,-4172,-542,-45,47,13506,777,8,7,13365,842,-6299,1799203,165,296,1989,8940
10257,34179,17392,-248,-4110,-540,-45,43,13423,784,9,7,13364,841,-6314,1802864,165,299,1990,8957
10268,34189,17366,-304,-4118,-532,-50,44,13390,862,10,7,13364,844,-6309,1806633,165,300,1993,8941
10278,34200,17350,-308,-4106,-536,-44,34,13346,936,11,7,13363,847,-6304,1810359,167,302,1996,8926
10288,34210,17342,-274,-4140,-531,-42,45,13416,888,11,7,13364,848,-6306,1813995,165,299,1997,8922
10298,34220,17352,-296,-4088,-536,-39,48,13337,919,12,7,13361,851,-6304,1817608,165,304,1999,8908
10308,34230,17310,-278,-4150,-540,-48,46,13421,905,10,7,13365,853,-6310,1821123,165,298,2002,8911
10319,34240,17356,-266,-4142,-531,-40,48,13423,819,11,7,13366,853,-6316,1824678,165,296,2003,8916
10329,34251,17372,-298,-4078,-529,-36,36,13351,865,13,7,13362,855,-6307,1828281,166,302,2001,8889
10339,34261,17368,-284,-4124,-538,-44,49,13362,951,13,7,13362,857,-6309,1831692,165,303,2003,8885
10349,34271,17372,-266,-4132,-542,-52,43,13377,866,12,7,13363,857,-6316,1835079,165,302,2003,8887
10359,34281,17354,-272,-4064,-539,-51,44,13294,869,13,7,13359,857,-6309,1838506,165,310,1998,8861
10369,34291,17338,-294,-4098,-546,-39,39,13298,955,13,7,13357,859,-6310,1841720,165,313,2000,8854
10380,34301,17316,-248,-4130,-549,-48,43,13350,886,11,7,13359,857,-6320,1844862,165,310,1999,8862
10390,34312,17342,-270,-4170,-541,-49,45,13434,877,10,7,13364,858,-6337,1848171,166,303,2005,8886
10400,34322,17316,-260,-4174,-540,-48,46,13515,849,8,7,13369,857,-6357,1851705,165,295,2012,8916
10410,34332,17340,-274,-4204,-539,-44,49,13596,871,7,7,13376,858,-6377,1855432,165,284,2020,8948
10420,34342,17380,-228,-4164,-551,-44,47,13541,808,7,7,13378,855,-6408,1859290,165,280,2025,8993
10430,34352,17394,-260,-4208,-538,-51,42,13619,839,6,7,13384,854,-6424,1863229,165,271,2030,9016
10440,34362,17376,-192,-4140,-525,-36,46,13560,779,8,7,13384,849,-6479,1867124,165,271,2040,9106
10450,34372,17376,-238,-4106,-534,-39,45,13477,774,9,7,13382,847,-6504,1870478,165,276,2044,9141
10460,34382,17330,-294,-4168,-538,-51,39,13500,857,9,7,13386,849,-6484,1873435,165,269,2039,9098
10471,34393,17304,-250,-4134,-544,-40,42,13434,803,10,7,13387,847,-6498,1876914,165,266,2040,9114
10481,34403,17330,-292,-4108,-537,-45,42,13384,872,11,7,13386,850,-6485,1880306,165,268,2036,9079
10491,34413,17338,-256,-4144,-535,-37,42,13448,816,10,7,13387,849,-6495,1884040,165,266,2038,9089
10501,34423,17366,-252,-4070,-535,-38,45,13364,814,12,7,13382,848,-6511,1887723,165,275,2040,9107
10511,34433,17374,-300,-4140,-546,-49,44,13386,897,11,7,13383,851,-6499,1891298,165,274,2038,9075
10522,34443,17346,-254,-4082,-548,-43,52,13312,856,11,7,13379,850,-6511,1895131,165,280,2038,9082
10532,34454,17370,-230,-4168,-544,-48,47,13383,810,10,7,13383,848,-6529,1898948,166,276,2038,9105
10542,34464,17326,-280,-4068,-540,-47,38,13309,849,11,7,13379,849,-6532,1902575,165,284,2039,9099
10552,34474,17338,-254,-4114,-541,-45,48,13374,794,10,7,13378,848,-6541,1906292,165,285,2039,9105
10562,34484,17340,-226,-4086,-536,-37,39,13301,751,11,7,13374,844,-6560,1909976,169,291,2038,9127
10572,34494,17338,-290,-4132,-543,-40,38,13343,825,10,7,13375,846,-6559,1913451,165,289,2040,9117
10583,34505,17368,-264,-4092,-544,-48,40,13262,846,11,7,13372,846,-6569,1917088,166,295,2041,9122
10593,34515,17366,-244,-4114,-541,-45,42,13323,786,10,7,13372,844,-6577,1920695,165,297,2039,9126
10603,34525,17358,-266,-4130,-539,-35,45,13379,850,9,7,13371,844,-6582,1924270,165,296,2040,9125
10613,34535,17284,-290,-4168,-541,-46,44,13456,886,8,7,13377,847,-6578,1927823,165,287,2040,9110
10623,34545,17332,-260,-4156,-539,-51,40,13498,811,7,7,13380,846,-6582,1931583,165,283,2040,9109
10633,34555,17352,-230,-4086,-539,-46,41,13418,787,9,7,13377,843,-6600,1935368,165,289,2039,9129
10643,34565,17332,-274,-4042,-537,-49,48,13339,813,10,7,13371,845,-6614,1938980,165,300,2045,9144
10654,34575,17368,-254,-4068,-542,-37,46,13254,814,11,7,13366,844,-6626,1942504,165,309,2045,9153
10664,34586,17352,-270,-4140,-543,-43,53,13334,840,9,7,13367,845,-6631,1945929,166,307,2046,9152
10674,34596,17346,-292,-4082,-547,-45,48,13276,902,9,7,13364,848,-6646,1949369,165,313,2054,9168
10684,34606,17340,-258,-4070,-536,-46,47,13219,841,10,7,13360,847,-6651,1952653,165,320,2053,9165
10694,34616,17318,-252,-4140,-536,-42,42,13302,829,9,7,13362,846,-6651,1955998,165,316,2049,9155
10704,34626,17362,-268,-4108,-535,-33,39,13325,911,9,7,13360,846,-6658,1959495,165,318,2050,9159
10714,34636,17366,-260,-4110,-538,-41,45,13313,826,10,7,13359,846,-6663,1962975,165,320,2049,9158
10724,34646,17402,-248,-4136,-541,-43,41,13386,784,9,7,13359,845,-6663,1966547,165,319,2044,9147
10735,34656,17380,-266,-4202,-542,-37,46,13465,810,7,7,13365,845,-6662,1970210,165,309,2042,9136
10745,34667,17320,-304,-4176,-538,-45,42,13506,885,7,7,13370,848,-6667,1974006,166,301,2049,9140
10755,34677,17376,-228,-4156,-532,-46,39,13478,804,8,7,13372,845,-6672,1977847,166,297,2044,9141
10765,34687,17410,-288,-4100,-527,-38,41,13404,843,10,7,13369,847,-6678,1981696,165,302,2048,9143
10775,34697,17344,-282,-4108,-534,-39,43,13337,896,11,7,13367,849,-6683,1985572,165,304,2051,9144
10785,34707,17332,-302,-4050,-536,-41,44,13258,929,13,7,13362,852,-6688,1989453,165,314,2057,9144
10795,34717,17388,-284,-4104,-539,-33,41,13322,874,12,7,13359,853,-6695,1993360,165,318,2060,9145
10806,34727,17378,-256,-4112,-540,-40,44,13306,789,12,7,13358,852,-6695,1997263,165,320,2056,9134
10816,34738,17404,-290,-4118,-534,-43,46,13309,875,12,7,13356,854,-6705,2001253,165,322,2061,9145
10826,34748,17334,-306,-4134,-549,-44,47,13369,937,10,7,13358,858,-6730,2005172,165,320,2076,9182
10836,34758,17384,-248,-4114,-538,-39,44,13338,857,11,7,13357,856,-6725,2008829,165,321,2069,9162
10846,34768,17342,-342,-4152,-540,-37,52,13377,934,10,7,13359,863,-6764,2012675,165,318,2096,9229
10856,34778,17378,-350,-4080,-542,-42,53,13321,999,11,7,13355,870,-6768,2015847,165,324,2107,9229
10867,34789,17310,-324,-4146,-540,-39,44,13402,1023,9,7,13358,875,-6817,2019033,166,320,2135,9313
10877,34799,17324,-284,-4150,-537,-38,46,13447,951,8,7,13361,876,-6853,2020838,165,316,2151,9372
10887,34809,17358,-308,-4152,-538,-42,47,13458,1036,8,7,13363,879,-6886,2021422,165,313,2168,9425
10897,34819,17364,-272,-4126,-541,-43,43,13416,962,8,7,13363,879,-6893,2020755,165,313,2168,9427
10907,34829,17342,-254,-4096,-539,-41,46,13360,898,9,7,13361,878,-6877,2020146,165,316,2156,9385
10917,34839,17358,-258,-4174,-542,-39,46,13437,865,8,7,13365,877,-6918,2021007,165,310,2169,9452
10927,34849,17368,-228,-4126,-540,-49,39,13396,790,8,7,13365,872,-6924,2020168,165,310,2162,9448
10937,34859,17370,-188,-4122,-542,-47,40,13376,706,9,7,13365,865,-6926,2019632,165,310,2147,9436
10948,34870,17350,-254,-4154,-544,-46,43,13430,772,8,7,13368,864,-6942,2019515,166,306,2150,9455
10958,34880,17372,-258,-4110,-544,-43,41,13354,807,8,7,13367,863,-6943,2019107,167,309,2146,9445
10968,34890,17322,-246,-4110,-536,-36,49,13321,728,9,7,13366,861,-6948,2019002,165,309,2142,9442
10978,34900,17352,-250,-4158,-544,-45,43,13396,764,8,7,13369,859,-6960,2019312,165,305,2142,9453
10988,34910,17364,-236,-4168,-545,-51,43,13480,758,6,7,13373,857,-6974,2019542,165,299,2141,9467
10998,34920,17376,-258,-4122,-541,-46,41,13406,795,7,7,13372,856,-6981,2019563,165,301,2140,9469
11008,34930,17382,-264,-4126,-533,-43,44,13345,854,8,7,13372,856,-6986,2019742,165,302,2139,9469
11018,34940,17392,-290,-4152,-544,-42,41,13407,910,7,7,13373,857,-6989,2020146,165,299,2142,9465
11028,34950,17326,-280,-4118,-535,-40,50,13326,889,9,7,13373,859,-6992,2020667,165,299,2143,9461
11038,34960,17392,-258,-4134,-535,-42,43,13375,820,8,7,13373,858,-6999,2021681,165,299,2142,9464
11048,34970,17338,-274,-4122,-529,-40,42,13372,906,9,7,13373,859,-7003,2022631,165,299,2142,9462
11059,34981,17326,-278,-4182,-537,-47,49,13456,901,8,7,13378,860,-7012,2023802,166,291,2146,9472
11069,34991,17378,-276,-4096,-533,-42,42,13373,894,9,7,13375,861,-7010,2025008,165,296,2144,9458
11079,35001,17346,-328,-4076,-535,-43,42,13315,956,11,7,13371,866,-6994,2026597,165,302,2144,9422
11089,35011,17324,-240,-4180,-540,-40,42,13383,906,10,7,13376,863,-7021,2029141,165,294,2149,9460
11099,35021,17296,-258,-4064,-540,-42,43,13306,870,11,7,13372,862,-7018,2030889,165,301,2143,9441
11109,35031,17216,-256,-4138,-540,-40,47,13389,853,9,7,13376,861,-7034,2033023,165,294,2146,9461
