pc_t_ms,emg_t_ms,emg0,emg1,emg2,emg3,emg4,emg5,emg6,emg7,imu_match,imu_source_idx,imu_pc_t_ms,imu_dt_ms,imu_t_ms,imu_ax_raw,imu_ay_raw,imu_az_raw,imu_gx_raw,imu_gy_raw,imu_gz_raw,imu_mad_roll_mdeg,imu_mad_pitch_mdeg,imu_mad_yaw_mdeg,imu_mad_us,imu_ekf_roll_mdeg,imu_ekf_pitch_mdeg,imu_ekf_yaw_mdeg,imu_traceP_1e6,imu_ekf_us,imu_bx_uradps,imu_by_uradps,imu_bz_uradps
0,0,12,-62,14,25,89,3,-30,-20,1,0,221.000,-221.000,24101,17328,-300,-4116,-533,-43,42,13259,1066,6,8,13362,964,4,4004695,165,11,11,-2
0,0,104,58,10,105,114,-9,40,1,1,0,221.000,-221.000,24101,17328,-300,-4116,-533,-43,42,13259,1066,6,8,13362,964,4,4004695,165,11,11,-2
0,4,101,102,-15,97,31,-14,81,22,1,0,221.000,-221.000,24101,17328,-300,-4116,-533,-43,42,13259,1066,6,8,13362,964,4,4004695,165,11,11,-2
0,4,-69,-75,-6,-69,-83,16,-72,-7,1,0,221.000,-221.000,24101,17328,-300,-4116,-533,-43,42,13259,1066,6,8,13362,964,4,4004695,165,11,11,-2
0,5,-2,-50,4,18,53,3,-26,-11,1,0,221.000,-221.000,24101,17328,-300,-4116,-533,-43,42,13259,1066,6,8,13362,964,4,4004695,165,11,11,-2
0,5,61,24,4,63,71,-4,10,-3,1,0,221.000,-221.000,24101,17328,-300,-4116,-533,-43,42,13259,1066,6,8,13362,964,4,4004695,165,11,11,-2
0,7,113,95,1,111,69,-16,75,17,1,0,221.000,-221.000,24101,17328,-300,-4116,-533,-43,42,13259,1066,6,8,13362,964,4,4004695,165,11,11,-2
0,7,-60,-56,-10,-61,-67,12,-55,-2,1,0,221.000,-221.000,24101,17328,-300,-4116,-533,-43,42,13259,1066,6,8,13362,964,4,4004695,165,11,11,-2
0,18,-6,-46,4,3,38,4,-28,-7,1,0,221.000,-221.000,24101,17328,-300,-4116,-533,-43,42,13259,1066,6,8,13362,964,4,4004695,165,11,11,-2
0,18,58,10,2,62,79,-1,3,-5,1,0,221.000,-221.000,24101,17328,-300,-4116,-533,-43,42,13259,1066,6,8,13362,964,4,4004695,165,11,11,-2
0,19,93,88,-1,91,53,-14,67,17,1,0,221.000,-221.000,24101,17328,-300,-4116,-533,-43,42,13259,1066,6,8,13362,964,4,4004695,165,11,11,-2
0,19,-51,-47,-10,-52,-54,9,-49,-5,1,0,221.000,-221.000,24101,17328,-300,-4116,-533,-43,42,13259,1066,6,8,13362,964,4,4004695,165,11,11,-2
0,31,-4,-45,5,0,27,5,-32,-14,1,0,221.000,-221.000,24101,17328,-300,-4116,-533,-43,42,13259,1066,6,8,13362,964,4,4004695,165,11,11,-2
0,31,72,34,-8,75,78,-6,25,0,1,0,221.000,-221.000,24101,17328,-300,-4116,-533,-43,42,13259,1066,6,8,13362,964,4,4004695,165,11,11,-2
0,43,66,64,4,61,20,-7,42,9,1,0,221.000,-221.000,24101,17328,-300,-4116,-533,-43,42,13259,1066,6,8,13362,964,4,4004695,165,11,11,-2
0,43,-45,-46,-1,-44,-45,7,-48,-6,1,0,221.000,-221.000,24101,17328,-300,-4116,-533,-43,42,13259,1066,6,8,13362,964,4,4004695,165,11,11,-2
0,47,20,-25,0,30,45,1,-14,-8,1,0,221.000,-221.000,24101,17328,-300,-4116,-533,-43,42,13259,1066,6,8,13362,964,4,4004695,165,11,11,-2
0,47,54,28,9,55,59,-6,19,2,1,0,221.000,-221.000,24101,17328,-300,-4116,-533,-43,42,13259,1066,6,8,13362,964,4,4004695,165,11,11,-2
0,74,44,42,-5,43,8,-5,27,8,1,0,221.000,-221.000,24101,17328,-300,-4116,-533,-43,42,13259,1066,6,8,13362,964,4,4004695,165,11,11,-2
0,74,-25,-38,-2,-23,-19,7,-38,-3,1,0,221.000,-221.000,24101,17328,-300,-4116,-533,-43,42,13259,1066,6,8,13362,964,4,4004695,165,11,11,-2
0,74,27,-6,4,31,46,-3,-4,-6,1,0,221.000,-221.000,24101,17328,-300,-4116,-533,-43,42,13259,1066,6,8,13362,964,4,4004695,165,11,11,-2
0,74,40,23,2,41,47,-2,13,1,1,0,221.000,-221.000,24101,17328,-300,-4116,-533,-43,42,13259,1066,6,8,13362,964,4,4004695,165,11,11,-2
0,99,30,25,-1,28,10,-4,15,3,1,0,221.000,-221.000,24101,17328,-300,-4116,-533,-43,42,13259,1066,6,8,13362,964,4,4004695,165,11,11,-2
0,99,-4,-15,-2,-2,-1,3,-20,-3,1,0,221.000,-221.000,24101,17328,-300,-4116,-533,-43,42,13259,1066,6,8,13362,964,4,4004695,165,11,11,-2
0,100,27,-3,-1,27,43,0,1,-1,1,0,221.000,-221.000,24101,17328,-300,-4116,-533,-43,42,13259,1066,6,8,13362,964,4,4004695,165,11,11,-2
0,100,30,12,9,32,37,-1,6,1,1,0,221.000,-221.000,24101,17328,-300,-4116,-533,-43,42,13259,1066,6,8,13362,964,4,4004695,165,11,11,-2
0,133,-87,13,-14,-97,-110,3,-4,10,1,0,221.000,-221.000,24101,17328,-300,-4116,-533,-43,42,13259,1066,6,8,13362,964,4,4004695,165,11,11,-2
0,133,-101,-102,2,-97,-40,18,-87,-23,1,0,221.000,-221.000,24101,17328,-300,-4116,-533,-43,42,13259,1066,6,8,13362,964,4,4004695,165,11,11,-2
0,133,86,3,1,89,91,-2,6,-7,1,0,221.000,-221.000,24101,17328,-300,-4116,-533,-43,42,13259,1066,6,8,13362,964,4,4004695,165,11,11,-2
0,133,92,72,0,97,116,-11,60,12,1,0,221.000,-221.000,24101,17328,-300,-4116,-533,-43,42,13259,1066,6,8,13362,964,4,4004695,165,11,11,-2
0,138,-39,24,-3,-45,-49,-3,11,12,1,0,221.000,-221.000,24101,17328,-300,-4116,-533,-43,42,13259,1066,6,8,13362,964,4,4004695,165,11,11,-2
0,138,-74,-64,-1,-75,-36,9,-61,-15,1,0,221.000,-221.000,24101,17328,-300,-4116,-533,-43,42,13259,1066,6,8,13362,964,4,4004695,165,11,11,-2
0,138,42,-20,9,44,53,2,-13,-12,1,0,221.000,-221.000,24101,17328,-300,-4116,-533,-43,42,13259,1066,6,8,13362,964,4,4004695,165,11,11,-2
0,138,99,71,0,103,118,-15,61,5,1,0,221.000,-221.000,24101,17328,-300,-4116,-533,-43,42,13259,1066,6,8,13362,964,4,4004695,165,11,11,-2
0,144,-17,32,-3,-24,-33,-1,14,11,1,0,221.000,-221.000,24101,17328,-300,-4116,-533,-43,42,13259,1066,6,8,13362,964,4,4004695,165,11,11,-2
0,144,-63,-54,-8,-63,-29,9,-47,-9,1,0,221.000,-221.000,24101,17328,-300,-4116,-533,-43,42,13259,1066,6,8,13362,964,4,4004695,165,11,11,-2
0,152,42,-19,9,47,56,3,-16,-7,1,0,221.000,-221.000,24101,17328,-300,-4116,-533,-43,42,13259,1066,6,8,13362,964,4,4004695,165,11,11,-2
0,152,95,70,-2,96,99,-10,60,9,1,0,221.000,-221.000,24101,17328,-300,-4116,-533,-43,42,13259,1066,6,8,13362,964,4,4004695,165,11,11,-2
0,161,-22,19,-6,-24,-28,1,7,11,1,0,221.000,-221.000,24101,17328,-300,-4116,-533,-43,42,13259,1066,6,8,13362,964,4,4004695,165,11,11,-2
0,161,-58,-61,1,-57,-13,5,-51,-14,1,0,221.000,-221.000,24101,17328,-300,-4116,-533,-43,42,13259,1066,6,8,13362,964,4,4004695,165,11,11,-2
0,183,50,-2,2,55,62,0,3,-4,1,0,221.000,-221.000,24101,17328,-300,-4116,-533,-43,42,13259,1066,6,8,13362,964,4,4004695,165,11,11,-2
0,183,74,58,2,74,76,-10,49,7,1,0,221.000,-221.000,24101,17328,-300,-4116,-533,-43,42,13259,1066,6,8,13362,964,4,4004695,165,11,11,-2
0,184,-26,-2,-4,-27,-23,1,-5,2,1,0,221.000,-221.000,24101,17328,-300,-4116,-533,-43,42,13259,1066,6,8,13362,964,4,4004695,165,11,11,-2
0,184,-28,-37,-4,-25,12,8,-31,-10,1,0,221.000,-221.000,24101,17328,-300,-4116,-533,-43,42,13259,1066,6,8,13362,964,4,4004695,165,11,11,-2
0,205,48,10,2,48,50,-3,7,-1,1,0,221.000,-221.000,24101,17328,-300,-4116,-533,-43,42,13259,1066,6,8,13362,964,4,4004695,165,11,11,-2
0,205,53,43,-4,56,57,-8,35,3,1,0,221.000,-221.000,24101,17328,-300,-4116,-533,-43,42,13259,1066,6,8,13362,964,4,4004695,165,11,11,-2
0,213,-15,-7,-5,-11,-6,1,-13,0,1,0,221.000,-221.000,24101,17328,-300,-4116,-533,-43,42,13259,1066,6,8,13362,964,4,4004695,165,11,11,-2
0,213,-8,-19,2,-8,19,0,-15,-5,1,0,221.000,-221.000,24101,17328,-300,-4116,-533,-43,42,13259,1066,6,8,13362,964,4,4004695,165,11,11,-2
0,220,36,8,3,37,40,-1,5,-2,1,0,221.000,-221.000,24101,17328,-300,-4116,-533,-43,42,13259,1066,6,8,13362,964,4,4004695,165,11,11,-2
0,220,38,22,-1,40,46,-4,20,4,1,0,221.000,-221.000,24101,17328,-300,-4116,-533,-43,42,13259,1066,6,8,13362,964,4,4004695,165,11,11,-2
0,227,-3,-5,-3,2,8,1,-5,2,1,0,221.000,-221.000,24101,17328,-300,-4116,-533,-43,42,13259,1066,6,8,13362,964,4,4004695,165,11,11,-2
0,227,-2,-11,6,-2,22,2,-9,-4,1,0,221.000,-221.000,24101,17328,-300,-4116,-533,-43,42,13259,1066,6,8,13362,964,4,4004695,165,11,11,-2
0,243,24,3,-3,26,31,-2,3,-2,1,0,221.000,-221.000,24101,17328,-300,-4116,-533,-43,42,13259,1066,6,8,13362,964,4,4004695,165,11,11,-2
0,243,39,22,1,41,45,-6,19,4,1,0,221.000,-221.000,24101,17328,-300,-4116,-533,-43,42,13259,1066,6,8,13362,964,4,4004695,165,11,11,-2
0,244,1,-3,-3,7,12,1,-5,0,1,0,221.000,-221.000,24101,17328,-300,-4116,-533,-43,42,13259,1066,6,8,13362,964,4,4004695,165,11,11,-2
0,244,-1,-9,0,13,26,0,-8,0,1,0,221.000,-221.000,24101,17328,-300,-4116,-533,-43,42,13259,1066,6,8,13362,964,4,4004695,165,11,11,-2
0,266,26,4,4,27,33,0,1,-2,1,0,221.000,-221.000,24101,17328,-300,-4116,-533,-43,42,13259,1066,6,8,13362,964,4,4004695,165,11,11,-2
0,266,39,23,-1,41,41,-6,19,4,1,0,221.000,-221.000,24101,17328,-300,-4116,-533,-43,42,13259,1066,6,8,13362,964,4,4004695,165,11,11,-2
0,267,3,-7,0,9,14,2,-5,0,1,0,221.000,-221.000,24101,17328,-300,-4116,-533,-43,42,13259,1066,6,8,13362,964,4,4004695,165,11,11,-2
0,267,-1,-11,2,9,25,1,-5,-3,1,0,221.000,-221.000,24101,17328,-300,-4116,-533,-43,42,13259,1066,6,8,13362,964,4,4004695,165,11,11,-2
0,278,28,6,0,28,31,-4,2,-2,1,0,221.000,-221.000,24101,17328,-300,-4116,-533,-43,42,13259,1066,6,8,13362,964,4,4004695,165,11,11,-2
0,278,33,19,-2,35,37,-1,16,2,1,0,221.000,-221.000,24101,17328,-300,-4116,-533,-43,42,13259,1066,6,8,13362,964,4,4004695,165,11,11,-2
0,287,3,-11,-1,8,14,2,-7,1,1,0,221.000,-221.000,24101,17328,-300,-4116,-533,-43,42,13259,1066,6,8,13362,964,4,4004695,165,11,11,-2
0,287,13,-6,-1,16,35,0,-5,-2,1,0,221.000,-221.000,24101,17328,-300,-4116,-533,-43,42,13259,1066,6,8,13362,964,4,4004695,165,11,11,-2
0,303,27,9,0,26,32,-2,3,0,1,0,221.000,-221.000,24101,17328,-300,-4116,-533,-43,42,13259,1066,6,8,13362,964,4,4004695,165,11,11,-2
0,303,29,15,0,30,31,0,10,1,1,0,221.000,-221.000,24101,17328,-300,-4116,-533,-43,42,13259,1066,6,8,13362,964,4,4004695,165,11,11,-2
0,304,8,-11,-1,12,18,1,-10,-2,1,0,221.000,-221.000,24101,17328,-300,-4116,-533,-43,42,13259,1066,6,8,13362,964,4,4004695,165,11,11,-2
0,304,18,-1,0,23,31,0,0,-1,1,0,221.000,-221.000,24101,17328,-300,-4116,-533,-43,42,13259,1066,6,8,13362,964,4,4004695,165,11,11,-2
0,326,23,9,-3,23,27,-3,4,3,1,0,221.000,-221.000,24101,17328,-300,-4116,-533,-43,42,13259,1066,6,8,13362,964,4,4004695,165,11,11,-2
0,326,26,11,-5,27,29,-1,10,2,1,0,221.000,-221.000,24101,17328,-300,-4116,-533,-43,42,13259,1066,6,8,13362,964,4,4004695,165,11,11,-2
0,331,11,-12,3,16,21,4,-8,-1,1,0,221.000,-221.000,24101,17328,-300,-4116,-533,-43,42,13259,1066,6,8,13362,964,4,4004695,165,11,11,-2
0,331,22,-1,-7,24,35,-4,3,-1,1,0,221.000,-221.000,24101,17328,-300,-4116,-533,-43,42,13259,1066,6,8,13362,964,4,4004695,165,11,11,-2
0,348,21,8,3,22,27,-1,4,1,1,0,221.000,-221.000,24101,17328,-300,-4116,-533,-43,42,13259,1066,6,8,13362,964,4,4004695,165,11,11,-2
0,348,26,9,1,27,29,-1,10,1,1,0,221.000,-221.000,24101,17328,-300,-4116,-533,-43,42,13259,1066,6,8,13362,964,4,4004695,165,11,11,-2
0,349,13,-7,-2,16,23,1,-10,-1,1,0,221.000,-221.000,24101,17328,-300,-4116,-533,-43,42,13259,1066,6,8,13362,964,4,4004695,165,11,11,-2
0,349,20,1,8,27,46,0,2,-2,1,0,221.000,-221.000,24101,17328,-300,-4116,-533,-43,42,13259,1066,6,8,13362,964,4,4004695,165,11,11,-2
0,363,21,6,-9,22,28,-4,1,-2,1,0,221.000,-221.000,24101,17328,-300,-4116,-533,-43,42,13259,1066,6,8,13362,964,4,4004695,165,11,11,-2
0,363,25,9,-1,28,30,-1,8,2,1,0,221.000,-221.000,24101,17328,-300,-4116,-533,-43,42,13259,1066,6,8,13362,964,4,4004695,165,11,11,-2
0,364,14,-11,-8,18,20,2,-8,-2,1,0,221.000,-221.000,24101,17328,-300,-4116,-533,-43,42,13259,1066,6,8,13362,964,4,4004695,165,11,11,-2
0,364,26,0,-2,27,44,0,3,-1,1,0,221.000,-221.000,24101,17328,-300,-4116,-533,-43,42,13259,1066,6,8,13362,964,4,4004695,165,11,11,-2
0,386,21,11,3,23,30,1,5,1,1,0,221.000,-221.000,24101,17328,-300,-4116,-533,-43,42,13259,1066,6,8,13362,964,4,4004695,165,11,11,-2
0,386,24,9,2,26,28,-1,9,2,1,0,221.000,-221.000,24101,17328,-300,-4116,-533,-43,42,13259,1066,6,8,13362,964,4,4004695,165,11,11,-2
0,387,15,-9,2,17,21,1,-9,-6,1,0,221.000,-221.000,24101,17328,-300,-4116,-533,-43,42,13259,1066,6,8,13362,964,4,4004695,165,11,11,-2
0,387,25,0,1,31,51,-1,6,-4,1,0,221.000,-221.000,24101,17328,-300,-4116,-533,-43,42,13259,1066,6,8,13362,964,4,4004695,165,11,11,-2
0,398,20,9,-2,22,32,-3,9,0,1,0,221.000,-221.000,24101,17328,-300,-4116,-533,-43,42,13259,1066,6,8,13362,964,4,4004695,165,11,11,-2
0,398,24,8,1,25,28,-1,6,2,1,0,221.000,-221.000,24101,17328,-300,-4116,-533,-43,42,13259,1066,6,8,13362,964,4,4004695,165,11,11,-2
0,425,16,-13,-1,19,22,1,-6,-1,1,0,221.000,-221.000,24101,17328,-300,-4116,-533,-43,42,13259,1066,6,8,13362,964,4,4004695,165,11,11,-2
0,425,29,2,2,32,52,-1,7,1,1,0,221.000,-221.000,24101,17328,-300,-4116,-533,-43,42,13259,1066,6,8,13362,964,4,4004695,165,11,11,-2
0,426,21,9,0,22,30,1,4,2,1,0,221.000,-221.000,24101,17328,-300,-4116,-533,-43,42,13259,1066,6,8,13362,964,4,4004695,165,11,11,-2
0,426,23,8,2,25,23,-4,5,1,1,0,221.000,-221.000,24101,17328,-300,-4116,-533,-43,42,13259,1066,6,8,13362,964,4,4004695,165,11,11,-2
0,429,17,-9,-1,19,24,7,-10,-4,1,0,221.000,-221.000,24101,17328,-300,-4116,-533,-43,42,13259,1066,6,8,13362,964,4,4004695,165,11,11,-2
0,429,25,2,3,33,44,-3,4,-1,1,0,221.000,-221.000,24101,17328,-300,-4116,-533,-43,42,13259,1066,6,8,13362,964,4,4004695,165,11,11,-2
0,445,20,9,7,21,29,0,3,0,1,0,221.000,-221.000,24101,17328,-300,-4116,-533,-43,42,13259,1066,6,8,13362,964,4,4004695,165,11,11,-2
0,445,23,7,-8,25,20,-2,6,1,1,0,221.000,-221.000,24101,17328,-300,-4116,-533,-43,42,13259,1066,6,8,13362,964,4,4004695,165,11,11,-2
0,448,17,-9,-5,19,25,1,-8,-1,1,0,221.000,-221.000,24101,17328,-300,-4116,-533,-43,42,13259,1066,6,8,13362,964,4,4004695,165,11,11,-2
0,448,28,6,1,27,41,-3,5,-1,1,0,221.000,-221.000,24101,17328,-300,-4116,-533,-43,42,13259,1066,6,8,13362,964,4,4004695,165,11,11,-2
0,459,20,7,1,21,28,0,6,-1,1,0,221.000,-221.000,24101,17328,-300,-4116,-533,-43,42,13259,1066,6,8,13362,964,4,4004695,165,11,11,-2
0,459,23,7,3,23,18,0,7,3,1,0,221.000,-221.000,24101,17328,-300,-4116,-533,-43,42,13259,1066,6,8,13362,964,4,4004695,165,11,11,-2
0,468,18,-9,-6,19,24,-1,-10,-1,1,0,221.000,-221.000,24101,17328,-300,-4116,-533,-43,42,13259,1066,6,8,13362,964,4,4004695,165,11,11,-2
0,468,30,5,-1,29,39,-1,5,1,1,0,221.000,-221.000,24101,17328,-300,-4116,-533,-43,42,13259,1066,6,8,13362,964,4,4004695,165,11,11,-2
0,483,19,6,-1,20,30,-2,4,0,1,0,221.000,-221.000,24101,17328,-300,-4116,-533,-43,42,13259,1066,6,8,13362,964,4,4004695,165,11,11,-2
0,483,23,7,-1,22,17,-3,4,-2,1,0,221.000,-221.000,24101,17328,-300,-4116,-533,-43,42,13259,1066,6,8,13362,964,4,4004695,165,11,11,-2
0,484,18,-12,4,20,20,1,-7,-4,1,0,221.000,-221.000,24101,17328,-300,-4116,-533,-43,42,13259,1066,6,8,13362,964,4,4004695,165,11,11,-2
0,484,27,6,-1,31,33,0,2,-2,1,0,221.000,-221.000,24101,17328,-300,-4116,-533,-43,42,13259,1066,6,8,13362,964,4,4004695,165,11,11,-2
0,506,20,12,-3,20,30,1,5,2,1,0,221.000,-221.000,24101,17328,-300,-4116,-533,-43,42,13259,1066,6,8,13362,964,4,4004695,165,11,11,-2
0,506,22,6,-9,24,19,2,4,1,1,0,221.000,-221.000,24101,17328,-300,-4116,-533,-43,42,13259,1066,6,8,13362,964,4,4004695,165,11,11,-2
0,507,17,-10,1,19,20,1,-11,-2,1,0,221.000,-221.000,24101,17328,-300,-4116,-533,-43,42,13259,1066,6,8,13362,964,4,4004695,165,11,11,-2
0,507,27,8,4,29,33,-2,5,0,1,0,221.000,-221.000,24101,17328,-300,-4116,-533,-43,42,13259,1066,6,8,13362,964,4,4004695,165,11,11,-2
0,519,19,10,-1,21,28,0,2,0,1,0,221.000,-221.000,24101,17328,-300,-4116,-533,-43,42,13259,1066,6,8,13362,964,4,4004695,165,11,11,-2
0,519,21,7,1,23,22,-1,4,2,1,0,221.000,-221.000,24101,17328,-300,-4116,-533,-43,42,13259,1066,6,8,13362,964,4,4004695,165,11,11,-2
0,527,18,-11,1,19,22,4,-8,-1,1,0,221.000,-221.000,24101,17328,-300,-4116,-533,-43,42,13259,1066,6,8,13362,964,4,4004695,165,11,11,-2
0,527,29,3,-6,29,43,-1,9,0,1,0,221.000,-221.000,24101,17328,-300,-4116,-533,-43,42,13259,1066,6,8,13362,964,4,4004695,165,11,11,-2
0,543,18,9,-1,20,27,-3,4,0,1,0,221.000,-221.000,24101,17328,-300,-4116,-533,-43,42,13259,1066,6,8,13362,964,4,4004695,165,11,11,-2
0,543,22,8,2,22,17,-2,4,3,1,0,221.000,-221.000,24101,17328,-300,-4116,-533,-43,42,13259,1066,6,8,13362,964,4,4004695,165,11,11,-2
0,544,17,-10,-1,19,20,0,-10,-2,1,0,221.000,-221.000,24101,17328,-300,-4116,-533,-43,42,13259,1066,6,8,13362,964,4,4004695,165,11,11,-2
0,544,25,8,4,28,42,0,4,1,1,0,221.000,-221.000,24101,17328,-300,-4116,-533,-43,42,13259,1066,6,8,13362,964,4,4004695,165,11,11,-2
0,573,19,11,0,21,26,0,5,2,1,0,221.000,-221.000,24101,17328,-300,-4116,-533,-43,42,13259,1066,6,8,13362,964,4,4004695,165,11,11,-2
0,573,20,6,-1,20,20,1,2,1,1,0,221.000,-221.000,24101,17328,-300,-4116,-533,-43,42,13259,1066,6,8,13362,964,4,4004695,165,11,11,-2
0,575,16,-8,2,18,22,2,-8,-1,1,0,221.000,-221.000,24101,17328,-300,-4116,-533,-43,42,13259,1066,6,8,13362,964,4,4004695,165,11,11,-2
0,575,28,7,-2,35,35,-1,7,-1,1,0,221.000,-221.000,24101,17328,-300,-4116,-533,-43,42,13259,1066,6,8,13362,964,4,4004695,165,11,11,-2
0,579,18,10,-1,20,29,3,3,1,1,0,221.000,-221.000,24101,17328,-300,-4116,-533,-43,42,13259,1066,6,8,13362,964,4,4004695,165,11,11,-2
0,579,20,6,-2,21,13,-1,1,-1,1,0,221.000,-221.000,24101,17328,-300,-4116,-533,-43,42,13259,1066,6,8,13362,964,4,4004695,165,11,11,-2
0,587,17,-10,0,19,21,3,-10,-2,1,0,221.000,-221.000,24101,17328,-300,-4116,-533,-43,42,13259,1066,6,8,13362,964,4,4004695,165,11,11,-2
0,587,26,8,3,36,39,-3,7,1,1,0,221.000,-221.000,24101,17328,-300,-4116,-533,-43,42,13259,1066,6,8,13362,964,4,4004695,165,11,11,-2
0,604,18,11,1,21,26,-5,0,0,1,0,221.000,-221.000,24101,17328,-300,-4116,-533,-43,42,13259,1066,6,8,13362,964,4,4004695,165,11,11,-2
0,604,19,6,0,21,19,-3,6,2,1,0,221.000,-221.000,24101,17328,-300,-4116,-533,-43,42,13259,1066,6,8,13362,964,4,4004695,165,11,11,-2
0,609,17,-10,0,20,20,1,-10,-4,1,0,221.000,-221.000,24101,17328,-300,-4116,-533,-43,42,13259,1066,6,8,13362,964,4,4004695,165,11,11,-2
0,609,30,7,0,34,33,-1,9,1,1,0,221.000,-221.000,24101,17328,-300,-4116,-533,-43,42,13259,1066,6,8,13362,964,4,4004695,165,11,11,-2
0,626,18,8,-4,21,29,-1,5,1,1,0,221.000,-221.000,24101,17328,-300,-4116,-533,-43,42,13259,1066,6,8,13362,964,4,4004695,165,11,11,-2
0,626,19,7,5,21,15,0,-1,0,1,0,221.000,-221.000,24101,17328,-300,-4116,-533,-43,42,13259,1066,6,8,13362,964,4,4004695,165,11,11,-2
0,627,17,-9,-2,18,21,-3,-9,-2,1,0,221.000,-221.000,24101,17328,-300,-4116,-533,-43,42,13259,1066,6,8,13362,964,4,4004695,165,11,11,-2
0,627,32,8,-3,34,35,0,6,2,1,0,221.000,-221.000,24101,17328,-300,-4116,-533,-43,42,13259,1066,6,8,13362,964,4,4004695,165,11,11,-2
0,639,20,15,0,22,26,-3,5,0,1,0,221.000,-221.000,24101,17328,-300,-4116,-533,-43,42,13259,1066,6,8,13362,964,4,4004695,165,11,11,-2
0,639,19,7,-1,20,19,-5,1,0,1,0,221.000,-221.000,24101,17328,-300,-4116,-533,-43,42,13259,1066,6,8,13362,964,4,4004695,165,11,11,-2
0,653,17,-9,2,19,20,5,-10,-3,1,0,221.000,-221.000,24101,17328,-300,-4116,-533,-43,42,13259,1066,6,8,13362,964,4,4004695,165,11,11,-2
0,653,30,8,-5,30,34,-5,5,0,1,0,221.000,-221.000,24101,17328,-300,-4116,-533,-43,42,13259,1066,6,8,13362,964,4,4004695,165,11,11,-2
0,662,19,10,1,22,29,-1,5,3,1,0,221.000,-221.000,24101,17328,-300,-4116,-533,-43,42,13259,1066,6,8,13362,964,4,4004695,165,11,11,-2
0,662,19,6,-6,19,18,3,0,3,1,0,221.000,-221.000,24101,17328,-300,-4116,-533,-43,42,13259,1066,6,8,13362,964,4,4004695,165,11,11,-2
0,664,17,-8,1,19,20,-1,-10,-3,1,0,221.000,-221.000,24101,17328,-300,-4116,-533,-43,42,13259,1066,6,8,13362,964,4,4004695,165,11,11,-2
0,664,31,6,0,39,35,2,4,0,1,0,221.000,-221.000,24101,17328,-300,-4116,-533,-43,42,13259,1066,6,8,13362,964,4,4004695,165,11,11,-2
0,686,20,12,4,22,28,-3,8,1,1,0,221.000,-221.000,24101,17328,-300,-4116,-533,-43,42,13259,1066,6,8,13362,964,4,4004695,165,11,11,-2
0,686,18,6,2,19,9,2,0,2,1,0,221.000,-221.000,24101,17328,-300,-4116,-533,-43,42,13259,1066,6,8,13362,964,4,4004695,165,11,11,-2
0,687,18,-7,-7,20,22,-3,-6,-2,1,0,221.000,-221.000,24101,17328,-300,-4116,-533,-43,42,13259,1066,6,8,13362,964,4,4004695,165,11,11,-2
0,687,34,8,-1,38,39,-1,4,-3,1,0,221.000,-221.000,24101,17328,-300,-4116,-533,-43,42,13259,1066,6,8,13362,964,4,4004695,165,11,11,-2
16,708,19,9,1,23,28,-3,1,1,1,0,221.000,-205.000,24101,17328,-300,-4116,-533,-43,42,13259,1066,6,8,13362,964,4,4004695,165,11,11,-2
16,708,18,6,1,17,15,-3,0,-1,1,0,221.000,-205.000,24101,17328,-300,-4116,-533,-43,42,13259,1066,6,8,13362,964,4,4004695,165,11,11,-2
17,710,17,-4,0,18,19,4,-8,-4,1,0,221.000,-204.000,24101,17328,-300,-4116,-533,-43,42,13259,1066,6,8,13362,964,4,4004695,165,11,11,-2
17,710,34,6,2,41,33,-3,6,0,1,0,221.000,-204.000,24101,17328,-300,-4116,-533,-43,42,13259,1066,6,8,13362,964,4,4004695,165,11,11,-2
38,730,20,6,-1,23,31,-1,4,3,1,0,221.000,-183.000,24101,17328,-300,-4116,-533,-43,42,13259,1066,6,8,13362,964,4,4004695,165,11,11,-2
38,730,17,6,-8,16,7,2,0,-1,1,0,221.000,-183.000,24101,17328,-300,-4116,-533,-43,42,13259,1066,6,8,13362,964,4,4004695,165,11,11,-2
40,732,17,-5,2,18,20,-1,-10,-2,1,0,221.000,-181.000,24101,17328,-300,-4116,-533,-43,42,13259,1066,6,8,13362,964,4,4004695,165,11,11,-2
40,732,33,8,2,37,29,-3,8,-2,1,0,221.000,-181.000,24101,17328,-300,-4116,-533,-43,42,13259,1066,6,8,13362,964,4,4004695,165,11,11,-2
53,745,20,7,-5,24,28,0,4,-2,1,0,221.000,-168.000,24101,17328,-300,-4116,-533,-43,42,13259,1066,6,8,13362,964,4,4004695,165,11,11,-2
53,745,16,6,4,16,23,-2,0,3,1,0,221.000,-168.000,24101,17328,-300,-4116,-533,-43,42,13259,1066,6,8,13362,964,4,4004695,165,11,11,-2
54,747,17,-3,1,18,20,2,-6,-4,1,0,221.000,-167.000,24101,17328,-300,-4116,-533,-43,42,13259,1066,6,8,13362,964,4,4004695,165,11,11,-2
54,747,34,9,0,32,33,-1,8,1,1,0,221.000,-167.000,24101,17328,-300,-4116,-533,-43,42,13259,1066,6,8,13362,964,4,4004695,165,11,11,-2
76,768,21,9,-3,23,30,-3,5,0,1,0,221.000,-145.000,24101,17328,-300,-4116,-533,-43,42,13259,1066,6,8,13362,964,4,4004695,165,11,11,-2
76,768,15,5,-5,14,13,0,-1,1,1,0,221.000,-145.000,24101,17328,-300,-4116,-533,-43,42,13259,1066,6,8,13362,964,4,4004695,165,11,11,-2
77,770,16,-4,0,18,23,2,-9,-2,1,0,221.000,-144.000,24101,17328,-300,-4116,-533,-43,42,13259,1066,6,8,13362,964,4,4004695,165,11,11,-2
77,770,34,9,4,34,35,0,5,0,1,0,221.000,-144.000,24101,17328,-300,-4116,-533,-43,42,13259,1066,6,8,13362,964,4,4004695,165,11,11,-2
91,783,21,9,2,22,27,0,2,0,1,0,221.000,-130.000,24101,17328,-300,-4116,-533,-43,42,13259,1066,6,8,13362,964,4,4004695,165,11,11,-2
91,783,16,6,3,17,3,2,-2,1,1,0,221.000,-130.000,24101,17328,-300,-4116,-533,-43,42,13259,1066,6,8,13362,964,4,4004695,165,11,11,-2
92,785,17,-3,-4,18,23,2,-8,-1,1,0,221.000,-129.000,24101,17328,-300,-4116,-533,-43,42,13259,1066,6,8,13362,964,4,4004695,165,11,11,-2
92,785,35,4,-1,36,30,-3,10,-1,1,0,221.000,-129.000,24101,17328,-300,-4116,-533,-43,42,13259,1066,6,8,13362,964,4,4004695,165,11,11,-2
113,805,21,11,-1,23,29,-1,6,-1,1,0,221.000,-108.000,24101,17328,-300,-4116,-533,-43,42,13259,1066,6,8,13362,964,4,4004695,165,11,11,-2
113,805,14,6,5,14,-3,4,-1,0,1,0,221.000,-108.000,24101,17328,-300,-4116,-533,-43,42,13259,1066,6,8,13362,964,4,4004695,165,11,11,-2
114,806,17,-2,0,17,22,3,-10,-3,1,0,221.000,-107.000,24101,17328,-300,-4116,-533,-43,42,13259,1066,6,8,13362,964,4,4004695,165,11,11,-2
114,806,32,9,-7,34,30,0,5,1,1,0,221.000,-107.000,24101,17328,-300,-4116,-533,-43,42,13259,1066,6,8,13362,964,4,4004695,165,11,11,-2
135,827,20,11,9,22,28,-2,4,1,1,0,221.000,-86.000,24101,17328,-300,-4116,-533,-43,42,13259,1066,6,8,13362,964,4,4004695,165,11,11,-2
136,827,12,7,-3,12,1,-3,-1,-1,1,0,221.000,-85.000,24101,17328,-300,-4116,-533,-43,42,13259,1066,6,8,13362,964,4,4004695,165,11,11,-2
137,830,16,-4,2,17,22,0,-8,-1,1,0,221.000,-84.000,24101,17328,-300,-4116,-533,-43,42,13259,1066,6,8,13362,964,4,4004695,165,11,11,-2
137,830,37,11,-2,32,34,-1,4,4,1,0,221.000,-84.000,24101,17328,-300,-4116,-533,-43,42,13259,1066,6,8,13362,964,4,4004695,165,11,11,-2
150,842,21,10,0,23,28,1,5,2,1,0,221.000,-71.000,24101,17328,-300,-4116,-533,-43,42,13259,1066,6,8,13362,964,4,4004695,165,11,11,-2
150,842,11,7,-5,11,22,2,-2,-1,1,0,221.000,-71.000,24101,17328,-300,-4116,-533,-43,42,13259,1066,6,8,13362,964,4,4004695,165,11,11,-2
165,857,16,-3,0,16,23,2,-7,-4,1,0,221.000,-56.000,24101,17328,-300,-4116,-533,-43,42,13259,1066,6,8,13362,964,4,4004695,165,11,11,-2
165,857,32,8,2,35,24,-3,5,-1,1,0,221.000,-56.000,24101,17328,-300,-4116,-533,-43,42,13259,1066,6,8,13362,964,4,4004695,165,11,11,-2
172,865,21,12,-2,23,26,-1,3,-1,1,0,221.000,-49.000,24101,17328,-300,-4116,-533,-43,42,13259,1066,6,8,13362,964,4,4004695,165,11,11,-2
172,865,12,4,-7,12,-2,2,-5,-1,1,0,221.000,-49.000,24101,17328,-300,-4116,-533,-43,42,13259,1066,6,8,13362,964,4,4004695,165,11,11,-2
173,865,15,-5,-6,16,24,-1,-6,-4,1,0,221.000,-48.000,24101,17328,-300,-4116,-533,-43,42,13259,1066,6,8,13362,964,4,4004695,165,11,11,-2
173,865,29,10,7,33,26,-2,3,1,1,0,221.000,-48.000,24101,17328,-300,-4116,-533,-43,42,13259,1066,6,8,13362,964,4,4004695,165,11,11,-2
221,889,21,10,-3,22,24,-1,5,1,1,0,221.000,0.000,24101,17328,-300,-4116,-533,-43,42,13259,1066,6,8,13362,964,4,4004695,165,11,11,-2
221,889,9,6,-2,11,10,0,-1,3,1,0,221.000,0.000,24101,17328,-300,-4116,-533,-43,42,13259,1066,6,8,13362,964,4,4004695,165,11,11,-2
221,890,15,-2,3,16,25,-1,-8,-4,1,0,221.000,0.000,24101,17328,-300,-4116,-533,-43,42,13259,1066,6,8,13362,964,4,4004695,165,11,11,-2
221,890,29,10,1,31,31,1,5,0,1,0,221.000,0.000,24101,17328,-300,-4116,-533,-43,42,13259,1066,6,8,13362,964,4,4004695,165,11,11,-2
221,901,20,7,-11,21,25,1,5,-1,1,0,221.000,0.000,24101,17328,-300,-4116,-533,-43,42,13259,1066,6,8,13362,964,4,4004695,165,11,11,-2
221,901,10,3,7,12,-2,-1,-4,-2,1,0,221.000,0.000,24101,17328,-300,-4116,-533,-43,42,13259,1066,6,8,13362,964,4,4004695,165,11,11,-2
221,909,15,-3,4,16,22,-1,-7,-5,1,0,221.000,0.000,24101,17328,-300,-4116,-533,-43,42,13259,1066,6,8,13362,964,4,4004695,165,11,11,-2
221,909,30,8,0,31,37,-4,7,1,1,0,221.000,0.000,24101,17328,-300,-4116,-533,-43,42,13259,1066,6,8,13362,964,4,4004695,165,11,11,-2
240,932,21,9,-3,22,25,-2,3,0,1,6,240.000,0.000,24161,17338,-328,-4072,-535,-37,38,13078,973,10,8,13230,926,-61,3383495,165,26073,13553,-3577
240,932,10,4,-3,12,3,4,-1,0,1,6,240.000,0.000,24161,17338,-328,-4072,-535,-37,38,13078,973,10,8,13230,926,-61,3383495,165,26073,13553,-3577
240,932,14,-4,2,16,21,-1,-6,0,1,6,240.000,0.000,24161,17338,-328,-4072,-535,-37,38,13078,973,10,8,13230,926,-61,3383495,165,26073,13553,-3577
240,932,29,12,3,34,32,-1,7,1,1,6,240.000,0.000,24161,17338,-328,-4072,-535,-37,38,13078,973,10,8,13230,926,-61,3383495,165,26073,13553,-3577
256,949,20,9,3,23,27,1,3,-1,1,8,260.000,-4.000,24182,17340,-268,-4126,-537,-43,41,13208,781,9,8,13203,913,-2,3022397,165,23962,7353,-2098
256,949,11,5,-4,13,8,-4,-6,0,1,8,260.000,-4.000,24182,17340,-268,-4126,-537,-43,41,13208,781,9,8,13203,913,-2,3022397,165,23962,7353,-2098
257,949,15,-1,1,16,22,1,-5,-4,1,8,260.000,-3.000,24182,17340,-268,-4126,-537,-43,41,13208,781,9,8,13203,913,-2,3022397,165,23962,7353,-2098
257,949,32,10,-4,34,28,-1,4,0,1,8,260.000,-3.000,24182,17340,-268,-4126,-537,-43,41,13208,781,9,8,13203,913,-2,3022397,165,23962,7353,-2098
269,961,21,8,4,23,24,-2,4,0,1,9,271.000,-2.000,24192,17372,-294,-4104,-540,-38,49,13440,1234,5,8,13213,924,-1,2865244,165,18526,8657,-2315
269,961,10,3,3,13,13,1,-3,0,1,9,271.000,-2.000,24192,17372,-294,-4104,-540,-38,49,13440,1234,5,8,13213,924,-1,2865244,165,18526,8657,-2315
277,969,14,-3,-5,17,24,2,-7,-2,1,10,281.000,-4.000,24202,17380,-280,-4094,-549,-40,47,13193,788,8,8,13215,922,-8,2728548,165,15960,7146,-1917
277,969,30,9,1,34,28,-1,2,1,1,10,281.000,-4.000,24202,17380,-280,-4094,-549,-40,47,13193,788,8,8,13215,922,-8,2728548,165,15960,7146,-1917
292,984,21,12,-1,23,24,-2,6,-1,1,11,291.000,1.000,24212,17340,-228,-4164,-549,-38,48,13682,700,1,8,13274,881,-47,2610756,165,2176,-1581,368
292,984,12,4,-4,11,1,0,-2,-2,1,11,291.000,1.000,24212,17340,-228,-4164,-549,-38,48,13682,700,1,8,13274,881,-47,2610756,165,2176,-1581,368
293,985,14,0,-4,17,24,4,-5,-4,1,11,291.000,2.000,24212,17340,-228,-4164,-549,-38,48,13682,700,1,8,13274,881,-47,2610756,165,2176,-1581,368
293,985,28,8,4,35,31,-2,6,-1,1,11,291.000,2.000,24212,17340,-228,-4164,-549,-38,48,13682,700,1,8,13274,881,-47,2610756,165,2176,-1581,368
325,1017,22,9,2,23,25,-3,4,1,1,14,322.000,3.000,24243,17398,-192,-4174,-540,-40,51,13438,237,4,8,13430,798,-218,2365738,165,-22654,-14589,3935
325,1017,11,3,-7,7,0,0,-6,-1,1,14,322.000,3.000,24243,17398,-192,-4174,-540,-40,51,13438,237,4,8,13430,798,-218,2365738,165,-22654,-14589,3935
325,1017,15,1,3,17,22,3,-4,-3,1,14,322.000,3.000,24243,17398,-192,-4174,-540,-40,51,13438,237,4,8,13430,798,-218,2365738,165,-22654,-14589,3935
325,1017,31,7,-3,32,30,-1,3,-1,1,14,322.000,3.000,24243,17398,-192,-4174,-540,-40,51,13438,237,4,8,13430,798,-218,2365738,165,-22654,-14589,3935
329,1021,21,10,-7,23,26,-1,3,3,1,15,332.000,-3.000,24253,17326,-224,-4162,-543,-48,40,13512,749,3,8,13457,774,-242,2305915,165,-24731,-16766,4493
329,1021,13,4,0,3,13,1,-5,2,1,15,332.000,-3.000,24253,17326,-224,-4162,-543,-48,40,13512,749,3,8,13457,774,-242,2305915,165,-24731,-16766,4493
345,1038,15,1,4,17,24,1,-6,-4,1,16,342.000,3.000,24264,17348,-172,-4238,-538,-34,48,13885,407,0,8,13521,722,-269,2257968,166,-32188,-22737,6031
345,1038,27,10,4,34,24,3,5,1,1,16,342.000,3.000,24264,17348,-172,-4238,-538,-34,48,13885,407,0,8,13521,722,-269,2257968,166,-32188,-22737,6031
354,1046,21,11,1,24,27,-1,1,1,1,17,353.000,1.000,24274,17328,-226,-4188,-530,-36,47,13538,778,4,8,13549,712,-231,2216209,165,-33451,-22291,5913
354,1046,5,3,-1,3,-12,-2,-5,0,1,17,353.000,1.000,24274,17328,-226,-4188,-530,-36,47,13538,778,4,8,13549,712,-231,2216209,165,-33451,-22291,5913
354,1047,16,1,-4,17,23,2,-7,-5,1,17,353.000,1.000,24274,17328,-226,-4188,-530,-36,47,13538,778,4,8,13549,712,-231,2216209,165,-33451,-22291,5913
355,1047,31,12,-2,32,33,-1,4,-4,1,17,353.000,2.000,24274,17328,-226,-4188,-530,-36,47,13538,778,4,8,13549,712,-231,2216209,165,-33451,-22291,5913
375,1068,21,10,-3,23,25,0,4,-1,1,19,374.000,1.000,24295,17358,-234,-4150,-534,-42,39,13466,808,6,8,13555,702,-242,2155784,165,-29082,-20181,5367
375,1068,6,4,-1,6,-5,1,-4,2,1,19,374.000,1.000,24295,17358,-234,-4150,-534,-42,39,13466,808,6,8,13555,702,-242,2155784,165,-29082,-20181,5367
375,1068,15,1,5,17,23,0,-4,-2,1,19,374.000,1.000,24295,17358,-234,-4150,-534,-42,39,13466,808,6,8,13555,702,-242,2155784,165,-29082,-20181,5367
376,1068,29,9,-2,26,22,-2,5,5,1,19,374.000,2.000,24295,17358,-234,-4150,-534,-42,39,13466,808,6,8,13555,702,-242,2155784,165,-29082,-20181,5367
390,1082,22,8,-4,23,28,-2,6,3,1,21,395.000,-5.000,24316,17370,-244,-4144,-537,-43,42,13466,781,6,8,13522,712,-263,2114446,165,-21413,-16346,4384
390,1082,2,3,0,0,-10,3,-5,0,1,21,395.000,-5.000,24316,17370,-244,-4144,-537,-43,42,13466,781,6,8,13522,712,-263,2114446,165,-21413,-16346,4384
405,1098,15,0,7,18,21,-1,-4,-2,1,22,405.000,0.000,24326,17382,-306,-4026,-533,-42,35,13023,990,13,8,13456,746,-270,2098340,165,-12717,-11566,3161
405,1098,31,12,3,33,34,-3,5,-2,1,22,405.000,0.000,24326,17382,-306,-4026,-533,-42,35,13023,990,13,8,13456,746,-270,2098340,165,-12717,-11566,3161
420,1113,21,8,-8,21,28,-1,4,-2,1,23,416.000,4.000,24337,17358,-272,-4086,-542,-45,41,13460,761,6,8,13430,759,-278,2083799,165,-9129,-9420,2620
420,1113,-1,1,-2,1,4,1,-6,0,1,23,416.000,4.000,24337,17358,-272,-4086,-542,-45,41,13460,761,6,8,13430,759,-278,2083799,165,-9129,-9420,2620
420,1113,15,2,-6,18,23,-3,-4,0,1,23,416.000,4.000,24337,17358,-272,-4086,-542,-45,41,13460,761,6,8,13430,759,-278,2083799,165,-9129,-9420,2620
420,1113,31,9,4,29,28,1,3,2,1,23,416.000,4.000,24337,17358,-272,-4086,-542,-45,41,13460,761,6,8,13430,759,-278,2083799,165,-9129,-9420,2620
435,1127,22,10,3,22,26,-1,4,-1,1,25,436.000,-1.000,24358,17322,-316,-4086,-536,-41,46,13549,898,5,8,13390,816,-442,2057769,166,-4165,-2959,1149
435,1127,-5,3,-1,-7,-4,3,-4,-4,1,25,436.000,-1.000,24358,17322,-316,-4086,-536,-41,46,13549,898,5,8,13390,816,-442,2057769,166,-4165,-2959,1149
435,1128,15,3,-3,17,23,2,-4,-2,1,25,436.000,-1.000,24358,17322,-316,-4086,-536,-41,46,13549,898,5,8,13390,816,-442,2057769,166,-4165,-2959,1149
436,1128,31,9,-6,28,32,-4,5,1,1,25,436.000,0.000,24358,17322,-316,-4086,-536,-41,46,13549,898,5,8,13390,816,-442,2057769,166,-4165,-2959,1149
464,1150,20,10,0,22,25,1,2,3,1,26,464.000,0.000,24368,17374,-292,-4090,-540,-36,43,13083,957,12,8,13372,831,-444,2044522,165,-2288,-1435,760
464,1150,-2,2,0,0,-10,1,-7,1,1,26,464.000,0.000,24368,17374,-292,-4090,-540,-36,43,13083,957,12,8,13372,831,-444,2044522,165,-2288,-1435,760
464,1151,16,2,5,16,22,0,-2,-1,1,26,464.000,0.000,24368,17374,-292,-4090,-540,-36,43,13083,957,12,8,13372,831,-444,2044522,165,-2288,-1435,760
464,1151,28,10,4,26,27,-1,5,-1,1,26,464.000,0.000,24368,17374,-292,-4090,-540,-36,43,13083,957,12,8,13372,831,-444,2044522,165,-2288,-1435,760
489,1181,21,11,-2,22,28,1,6,2,1,30,487.000,2.000,24408,17342,-244,-4138,-536,-40,48,13296,601,7,8,13370,853,-543,2000198,165,-1717,442,396
489,1181,-7,1,3,2,2,2,-8,0,1,30,487.000,2.000,24408,17342,-244,-4138,-536,-40,48,13296,601,7,8,13370,853,-543,2000198,165,-1717,442,396
489,1182,15,2,2,18,23,2,-3,-6,1,30,487.000,2.000,24408,17342,-244,-4138,-536,-40,48,13296,601,7,8,13370,853,-543,2000198,165,-1717,442,396
489,1182,31,8,-4,29,32,-1,3,1,1,30,487.000,2.000,24408,17342,-244,-4138,-536,-40,48,13296,601,7,8,13370,853,-543,2000198,165,-1717,442,396
495,1187,20,10,3,20,26,0,4,1,1,31,497.000,-2.000,24418,17352,-264,-4184,-534,-45,45,13624,911,3,8,13393,853,-614,1991531,165,-3443,403,499
495,1187,-3,2,-5,-1,3,3,-4,-2,1,31,497.000,-2.000,24418,17352,-264,-4184,-534,-45,45,13624,911,3,8,13393,853,-614,1991531,165,-3443,403,499
510,1203,15,2,3,18,22,0,-3,-2,1,32,507.000,3.000,24428,17382,-228,-4210,-543,-43,44,13601,458,3,8,13420,839,-656,1982181,165,-5331,-605,820
510,1203,24,8,-5,31,36,-4,1,0,1,32,507.000,3.000,24428,17382,-228,-4210,-543,-43,44,13601,458,3,8,13420,839,-656,1982181,165,-5331,-605,820
519,1210,20,10,0,20,27,0,6,0,1,33,517.000,2.000,24438,17348,-242,-4128,-540,-38,41,13346,833,6,8,13418,832,-640,1972205,165,-5007,-1118,934
519,1210,-8,-3,0,-4,3,2,-8,-2,1,33,517.000,2.000,24438,17348,-242,-4128,-540,-38,41,13346,833,6,8,13418,832,-640,1972205,165,-5007,-1118,934
519,1212,15,2,-2,17,24,0,-4,-3,1,33,517.000,2.000,24438,17348,-242,-4128,-540,-38,41,13346,833,6,8,13418,832,-640,1972205,165,-5007,-1118,934
519,1212,27,11,1,31,29,0,4,0,1,33,517.000,2.000,24438,17348,-242,-4128,-540,-38,41,13346,833,6,8,13418,832,-640,1972205,165,-5007,-1118,934
540,1233,19,9,0,21,27,-6,6,1,1,35,537.000,3.000,24459,17342,-208,-4176,-537,-43,50,13410,885,5,8,13456,782,-634,1956956,165,-7241,-4420,1804
540,1233,-3,-2,-5,4,6,2,-6,2,1,35,537.000,3.000,24459,17342,-208,-4176,-537,-43,50,13410,885,5,8,13456,782,-634,1956956,165,-7241,-4420,1804
541,1234,15,3,3,18,22,-3,-3,-2,1,35,537.000,4.000,24459,17342,-208,-4176,-537,-43,50,13410,885,5,8,13456,782,-634,1956956,165,-7241,-4420,1804
541,1234,27,13,-1,30,28,0,6,4,1,35,537.000,4.000,24459,17342,-208,-4176,-537,-43,50,13410,885,5,8,13456,782,-634,1956956,165,-7241,-4420,1804
555,1247,18,10,-1,21,25,-2,5,-1,1,37,558.000,-3.000,24479,17318,-226,-4104,-543,-47,43,13283,856,7,8,13448,761,-659,1944814,165,-6077,-5454,2142
555,1247,-3,-3,0,-1,7,-2,-7,-3,1,37,558.000,-3.000,24479,17318,-226,-4104,-543,-47,43,13283,856,7,8,13448,761,-659,1944814,165,-6077,-5454,2142
562,1255,16,2,-1,17,24,3,-2,-4,1,37,558.000,4.000,24479,17318,-226,-4104,-543,-47,43,13283,856,7,8,13448,761,-659,1944814,165,-6077,-5454,2142
562,1255,29,14,-4,28,29,-4,2,-1,1,37,558.000,4.000,24479,17318,-226,-4104,-543,-47,43,13283,856,7,8,13448,761,-659,1944814,165,-6077,-5454,2142
577,1270,18,8,3,21,26,1,2,0,1,39,578.000,-1.000,24500,17328,-280,-4092,-542,-41,39,13298,895,6,8,13445,770,-670,1934437,165,-5420,-4443,1886
577,1270,4,-3,3,2,5,0,-8,-4,1,39,578.000,-1.000,24500,17328,-280,-4092,-542,-41,39,13298,895,6,8,13445,770,-670,1934437,165,-5420,-4443,1886
578,1271,15,2,-1,18,22,-2,-3,0,1,39,578.000,0.000,24500,17328,-280,-4092,-542,-41,39,13298,895,6,8,13445,770,-670,1934437,165,-5420,-4443,1886
578,1271,27,8,1,29,28,-2,5,-1,1,39,578.000,0.000,24500,17328,-280,-4092,-542,-41,39,13298,895,6,8,13445,770,-670,1934437,165,-5420,-4443,1886
600,1293,19,8,-12,21,26,-5,3,2,1,41,599.000,1.000,24520,17374,-284,-4046,-540,-44,43,13298,920,6,8,13409,790,-692,1925465,165,-2887,-2952,1541
600,1293,-2,-2,4,0,12,4,-9,2,1,41,599.000,1.000,24520,17374,-284,-4046,-540,-44,43,13298,920,6,8,13409,790,-692,1925465,165,-2887,-2952,1541
601,1293,16,2,1,19,28,4,-3,-3,1,41,599.000,2.000,24520,17374,-284,-4046,-540,-44,43,13298,920,6,8,13409,790,-692,1925465,165,-2887,-2952,1541
601,1293,26,7,0,25,29,-3,6,-1,1,41,599.000,2.000,24520,17374,-284,-4046,-540,-44,43,13298,920,6,8,13409,790,-692,1925465,165,-2887,-2952,1541
615,1307,19,7,4,20,27,-3,6,1,1,43,620.000,-5.000,24541,17364,-250,-4194,-542,-41,44,13311,726,4,8,13431,797,-733,1917121,165,-3912,-2374,1443
615,1307,2,-7,-4,2,13,0,-8,-1,1,43,620.000,-5.000,24541,17364,-250,-4194,-542,-41,44,13311,726,4,8,13431,797,-733,1917121,165,-3912,-2374,1443
615,1308,16,2,0,19,30,-1,-2,-1,1,43,620.000,-5.000,24541,17364,-250,-4194,-542,-41,44,13311,726,4,8,13431,797,-733,1917121,165,-3912,-2374,1443
616,1308,26,8,3,25,33,1,6,0,1,43,620.000,-4.000,24541,17364,-250,-4194,-542,-41,44,13311,726,4,8,13431,797,-733,1917121,165,-3912,-2374,1443
637,1329,19,9,-8,22,28,0,6,1,1,45,640.000,-3.000,24562,17334,-264,-4116,-533,-37,47,13400,757,3,8,13412,819,-733,1908947,166,-2646,-1068,1089
637,1329,2,-5,1,-3,5,1,-6,-2,1,45,640.000,-3.000,24562,17334,-264,-4116,-533,-37,47,13400,757,3,8,13412,819,-733,1908947,166,-2646,-1068,1089
638,1330,17,3,-2,18,32,0,0,1,1,45,640.000,-2.000,24562,17334,-264,-4116,-533,-37,47,13400,757,3,8,13412,819,-733,1908947,166,-2646,-1068,1089
638,1330,30,11,5,29,29,-1,2,2,1,45,640.000,-2.000,24562,17334,-264,-4116,-533,-37,47,13400,757,3,8,13412,819,-733,1908947,166,-2646,-1068,1089
660,1353,19,9,5,22,28,-1,9,0,1,47,660.000,0.000,24582,17342,-292,-4150,-539,-42,45,13534,831,1,8,13414,838,-766,1902575,165,-2565,-63,881
661,1353,1,-5,-4,-2,14,0,-7,0,1,47,660.000,1.000,24582,17342,-292,-4150,-539,-42,45,13534,831,1,8,13414,838,-766,1902575,165,-2565,-63,881
661,1354,17,2,-3,19,33,0,-1,-4,1,47,660.000,1.000,24582,17342,-292,-4150,-539,-42,45,13534,831,1,8,13414,838,-766,1902575,165,-2565,-63,881
661,1354,23,11,4,27,23,1,3,1,1,47,660.000,1.000,24582,17342,-292,-4150,-539,-42,45,13534,831,1,8,13414,838,-766,1902575,165,-2565,-63,881
682,1375,19,8,-3,22,27,-3,5,1,1,49,680.000,2.000,24602,17330,-270,-4134,-531,-44,41,13533,848,2,8,13395,846,-726,1897157,165,-1449,334,687
682,1375,-3,-6,-3,-3,8,4,-7,-1,1,49,680.000,2.000,24602,17330,-270,-4134,-531,-44,41,13533,848,2,8,13395,846,-726,1897157,165,-1449,334,687
690,1382,17,1,1,18,35,-1,1,-2,1,50,690.000,0.000,24612,17362,-284,-4154,-538,-40,42,13215,1104,7,8,13400,851,-747,1895563,165,-1676,584,670
690,1382,28,10,0,29,31,-1,3,0,1,50,690.000,0.000,24612,17362,-284,-4154,-538,-40,42,13215,1104,7,8,13400,851,-747,1895563,165,-1676,584,670
697,1389,20,9,2,21,30,-1,6,1,1,51,700.000,-3.000,24622,17346,-274,-4212,-539,-39,43,13576,916,1,8,13420,854,-795,1893838,165,-2588,709,760
697,1389,-2,-5,-4,-4,16,2,-5,-1,1,51,700.000,-3.000,24622,17346,-274,-4212,-539,-39,43,13576,916,1,8,13420,854,-795,1893838,165,-2588,709,760
698,1390,16,2,-3,19,31,-1,1,-1,1,51,700.000,-2.000,24622,17346,-274,-4212,-539,-39,43,13576,916,1,8,13420,854,-795,1893838,165,-2588,709,760
698,1390,23,10,2,29,26,-2,2,2,1,51,700.000,-2.000,24622,17346,-274,-4212,-539,-39,43,13576,916,1,8,13420,854,-795,1893838,165,-2588,709,760
721,1413,20,11,7,22,29,0,5,0,1,53,720.000,1.000,24642,17306,-256,-4110,-543,-43,46,13579,910,0,8,13419,852,-790,1888824,165,-2417,617,763
721,1413,-6,-6,-10,-9,3,2,-7,-3,1,53,720.000,1.000,24642,17306,-256,-4110,-543,-43,46,13579,910,0,8,13419,852,-790,1888824,165,-2417,617,763
721,1413,17,3,6,18,32,-1,2,-3,1,53,720.000,1.000,24642,17306,-256,-4110,-543,-43,46,13579,910,0,8,13419,852,-790,1888824,165,-2417,617,763
721,1413,29,10,-2,29,29,-4,3,0,1,53,720.000,1.000,24642,17306,-256,-4110,-543,-43,46,13579,910,0,8,13419,852,-790,1888824,165,-2417,617,763
735,1427,20,8,-4,22,32,3,3,1,1,54,730.000,5.000,24652,17326,-216,-4204,-540,-51,49,13687,519,0,8,13437,841,-814,1887125,165,-3149,115,976
735,1427,-3,-4,0,-5,10,1,-10,-2,1,54,730.000,5.000,24652,17326,-216,-4204,-540,-51,49,13687,519,0,8,13437,841,-814,1887125,165,-3149,115,976
735,1428,16,2,-4,18,29,-1,1,-2,1,54,730.000,5.000,24652,17326,-216,-4204,-540,-51,49,13687,519,0,8,13437,841,-814,1887125,165,-3149,115,976
736,1428,25,7,0,28,24,1,5,-1,1,55,740.000,-4.000,24662,17346,-300,-4190,-550,-42,44,13592,911,0,8,13449,850,-812,1885250,165,-3599,496,882
766,1458,19,8,-1,21,30,-6,9,3,1,57,761.000,5.000,24682,17336,-230,-4130,-537,-43,44,13569,933,0,8,13455,842,-833,1882296,165,-3647,166,1021
766,1458,-10,-7,2,-11,11,-1,-10,0,1,57,761.000,5.000,24682,17336,-230,-4130,-537,-43,44,13569,933,0,8,13455,842,-833,1882296,165,-3647,166,1021
766,1459,16,3,4,17,27,-2,2,1,1,57,761.000,5.000,24682,17336,-230,-4130,-537,-43,44,13569,933,0,8,13455,842,-833,1882296,165,-3647,166,1021
766,1459,28,10,-2,28,30,-3,6,0,1,57,761.000,5.000,24682,17336,-230,-4130,-537,-43,44,13569,933,0,8,13455,842,-833,1882296,165,-3647,166,1021
797,1489,20,7,2,22,29,-1,7,1,1,61,801.000,-4.000,24723,17330,-238,-4116,-541,-45,40,13299,908,3,8,13477,813,-924,1876611,166,-4196,-863,1580
797,1489,-7,-9,-7,-6,12,0,-9,-2,1,61,801.000,-4.000,24723,17330,-238,-4116,-541,-45,40,13299,908,3,8,13477,813,-924,1876611,166,-4196,-863,1580
797,1490,16,1,-4,18,28,-1,0,-2,1,61,801.000,-4.000,24723,17330,-238,-4116,-541,-45,40,13299,908,3,8,13477,813,-924,1876611,166,-4196,-863,1580
798,1490,26,11,-4,27,27,0,5,0,1,61,801.000,-3.000,24723,17330,-238,-4116,-541,-45,40,13299,908,3,8,13477,813,-924,1876611,166,-4196,-863,1580
799,1491,20,9,0,21,31,0,6,-1,1,61,801.000,-2.000,24723,17330,-238,-4116,-541,-45,40,13299,908,3,8,13477,813,-924,1876611,166,-4196,-863,1580
799,1491,-11,-7,13,-5,16,3,-12,-2,1,61,801.000,-2.000,24723,17330,-238,-4116,-541,-45,40,13299,908,3,8,13477,813,-924,1876611,166,-4196,-863,1580
802,1495,15,2,0,17,28,0,1,-3,1,61,801.000,1.000,24723,17330,-238,-4116,-541,-45,40,13299,908,3,8,13477,813,-924,1876611,166,-4196,-863,1580
802,1495,27,12,-5,28,28,-3,7,-2,1,61,801.000,1.000,24723,17330,-238,-4116,-541,-45,40,13299,908,3,8,13477,813,-924,1876611,166,-4196,-863,1580
817,1510,20,9,-2,21,28,-2,8,-1,1,63,822.000,-5.000,24743,17354,-266,-4072,-539,-38,40,13294,854,3,8,13456,819,-951,1872075,169,-3177,-550,1501
817,1510,-8,-8,-1,1,17,-1,-8,0,1,63,822.000,-5.000,24743,17354,-266,-4072,-539,-38,40,13294,854,3,8,13456,819,-951,1872075,169,-3177,-550,1501
818,1510,15,2,3,18,25,0,1,-1,1,63,822.000,-4.000,24743,17354,-266,-4072,-539,-38,40,13294,854,3,8,13456,819,-951,1872075,169,-3177,-550,1501
818,1510,26,8,0,26,26,0,4,1,1,63,822.000,-4.000,24743,17354,-266,-4072,-539,-38,40,13294,854,3,8,13456,819,-951,1872075,169,-3177,-550,1501
839,1532,19,10,-3,21,31,-1,7,2,1,65,842.000,-3.000,24764,17348,-288,-4084,-536,-42,51,13224,887,4,8,13437,833,-971,1867521,166,-2343,-57,1358
840,1532,-12,-9,2,-2,20,1,-8,-4,1,65,842.000,-2.000,24764,17348,-288,-4084,-536,-42,51,13224,887,4,8,13437,833,-971,1867521,166,-2343,-57,1358
847,1539,15,2,-4,18,28,-2,2,0,1,65,842.000,5.000,24764,17348,-288,-4084,-536,-42,51,13224,887,4,8,13437,833,-971,1867521,166,-2343,-57,1358
847,1539,28,11,1,26,26,-1,5,1,1,65,842.000,5.000,24764,17348,-288,-4084,-536,-42,51,13224,887,4,8,13437,833,-971,1867521,166,-2343,-57,1358
855,1547,20,9,-4,22,28,-3,8,2,1,66,852.000,3.000,24774,17384,-294,-4048,-546,-43,47,12886,1050,9,8,13418,840,-990,1865439,166,-1581,181,1278
855,1547,-3,-7,5,3,21,-1,-9,-1,1,66,852.000,3.000,24774,17384,-294,-4048,-546,-43,47,12886,1050,9,8,13418,840,-990,1865439,166,-1581,181,1278
856,1548,14,2,3,20,24,-1,2,-4,1,66,852.000,4.000,24774,17384,-294,-4048,-546,-43,47,12886,1050,9,8,13418,840,-990,1865439,166,-1581,181,1278
856,1548,26,8,-1,25,25,-1,3,0,1,66,852.000,4.000,24774,17384,-294,-4048,-546,-43,47,12886,1050,9,8,13418,840,-990,1865439,166,-1581,181,1278
877,1570,19,7,3,22,31,-3,6,0,1,68,873.000,4.000,24794,17336,-266,-4178,-550,-41,48,13570,840,-3,8,13431,854,-1017,1860798,165,-1937,681,1270
877,1570,-5,-9,-5,2,21,4,-11,0,1,68,873.000,4.000,24794,17336,-266,-4178,-550,-41,48,13570,840,-3,8,13431,854,-1017,1860798,165,-1937,681,1270
878,1570,17,2,3,21,27,-4,0,-4,1,68,873.000,5.000,24794,17336,-266,-4178,-550,-41,48,13570,840,-3,8,13431,854,-1017,1860798,165,-1937,681,1270
878,1570,28,12,2,26,26,-1,2,1,1,68,873.000,5.000,24794,17336,-266,-4178,-550,-41,48,13570,840,-3,8,13431,854,-1017,1860798,165,-1937,681,1270
901,1593,20,9,-6,22,28,0,7,2,1,71,904.000,-3.000,24825,17368,-314,-4196,-537,-43,47,13639,1271,-5,8,13444,865,-1023,1855663,165,-2236,1029,1238
901,1593,-1,-10,-1,7,22,1,-7,-5,1,71,904.000,-3.000,24825,17368,-314,-4196,-537,-43,47,13639,1271,-5,8,13444,865,-1023,1855663,165,-2236,1029,1238
901,1593,17,1,0,21,23,-1,0,-1,1,71,904.000,-3.000,24825,17368,-314,-4196,-537,-43,47,13639,1271,-5,8,13444,865,-1023,1855663,165,-2236,1029,1238
901,1593,25,8,-6,23,25,-2,4,1,1,71,904.000,-3.000,24825,17368,-314,-4196,-537,-43,47,13639,1271,-5,8,13444,865,-1023,1855663,165,-2236,1029,1238
915,1607,19,8,5,22,29,-3,8,5,1,72,914.000,1.000,24835,17326,-262,-4176,-542,-42,54,13562,899,-4,8,13452,865,-1029,1854473,165,-2446,992,1296
915,1607,1,-13,-6,4,21,3,-7,-2,1,72,914.000,1.000,24835,17326,-262,-4176,-542,-42,54,13562,899,-4,8,13452,865,-1029,1854473,165,-2446,992,1296
915,1608,19,1,0,23,36,-4,0,-2,1,72,914.000,1.000,24835,17326,-262,-4176,-542,-42,54,13562,899,-4,8,13452,865,-1029,1854473,165,-2446,992,1296
915,1608,26,9,0,24,24,0,6,-1,1,72,914.000,1.000,24835,17326,-262,-4176,-542,-42,54,13562,899,-4,8,13452,865,-1029,1854473,165,-2446,992,1296
937,1630,20,8,2,23,29,-3,7,2,1,74,935.000,2.000,24856,17286,-222,-4210,-543,-45,48,13529,847,-4,8,13466,865,-1040,1852825,165,-2788,961,1402
937,1630,2,-9,1,6,23,1,-11,-1,1,74,935.000,2.000,24856,17286,-222,-4210,-543,-45,48,13529,847,-4,8,13466,865,-1040,1852825,165,-2788,961,1402
938,1631,19,1,-3,22,41,0,3,-3,1,74,935.000,3.000,24856,17286,-222,-4210,-543,-45,48,13529,847,-4,8,13466,865,-1040,1852825,165,-2788,961,1402
938,1631,24,11,2,22,24,1,4,-1,1,74,935.000,3.000,24856,17286,-222,-4210,-543,-45,48,13529,847,-4,8,13466,865,-1040,1852825,165,-2788,961,1402
961,1652,20,7,-7,23,29,0,6,0,1,77,965.000,-4.000,24887,17330,-250,-4162,-541,-46,48,13164,795,1,8,13473,860,-1056,1851675,166,-2848,769,1512
961,1652,2,-14,1,6,22,2,-11,-2,1,77,965.000,-4.000,24887,17330,-250,-4162,-541,-46,48,13164,795,1,8,13473,860,-1056,1851675,166,-2848,769,1512
961,1653,20,1,5,21,44,1,4,-1,1,77,965.000,-4.000,24887,17330,-250,-4162,-541,-46,48,13164,795,1,8,13473,860,-1056,1851675,166,-2848,769,1512
961,1653,23,9,-3,27,25,-2,8,-1,1,77,965.000,-4.000,24887,17330,-250,-4162,-541,-46,48,13164,795,1,8,13473,860,-1056,1851675,166,-2848,769,1512
975,1667,20,8,-7,23,28,0,6,1,1,78,975.000,0.000,24897,17396,-286,-4124,-541,-34,47,13449,996,-2,8,13467,863,-1057,1851566,165,-2619,846,1440
975,1667,6,-11,-1,8,22,-1,-12,0,1,78,975.000,0.000,24897,17396,-286,-4124,-541,-34,47,13449,996,-2,8,13467,863,-1057,1851566,165,-2619,846,1440
975,1668,20,1,4,21,51,-1,3,0,1,78,975.000,0.000,24897,17396,-286,-4124,-541,-34,47,13449,996,-2,8,13467,863,-1057,1851566,165,-2619,846,1440
975,1668,23,9,5,23,25,0,2,0,1,78,975.000,0.000,24897,17396,-286,-4124,-541,-34,47,13449,996,-2,8,13467,863,-1057,1851566,165,-2619,846,1440
997,1690,21,7,1,24,28,-2,3,-1,1,80,995.000,2.000,24917,17356,-234,-4112,-537,-39,46,13435,696,-1,8,13456,863,-1066,1851925,165,-2219,800,1376
997,1690,5,-11,-6,6,24,0,-10,-2,1,80,995.000,2.000,24917,17356,-234,-4112,-537,-39,46,13435,696,-1,8,13456,863,-1066,1851925,165,-2219,800,1376
998,1691,20,2,3,23,52,-1,4,-1,1,80,995.000,3.000,24917,17356,-234,-4112,-537,-39,46,13435,696,-1,8,13456,863,-1066,1851925,165,-2219,800,1376
998,1691,23,7,-4,25,27,-2,4,0,1,80,995.000,3.000,24917,17356,-234,-4112,-537,-39,46,13435,696,-1,8,13456,863,-1066,1851925,165,-2219,800,1376
1020,1713,22,7,1,25,30,0,8,3,1,82,1016.000,4.000,24938,17358,-306,-4076,-545,-42,47,13301,1117,0,8,13425,869,-1109,1852330,165,-1255,923,1245
1020,1713,6,-11,0,6,25,2,-8,-1,1,82,1016.000,4.000,24938,17358,-306,-4076,-545,-42,47,13301,1117,0,8,13425,869,-1109,1852330,165,-1255,923,1245
1021,1713,19,6,-2,20,44,2,3,2,1,82,1016.000,5.000,24938,17358,-306,-4076,-545,-42,47,13301,1117,0,8,13425,869,-1109,1852330,165,-1255,923,1245
1021,1713,24,10,-6,23,24,-3,5,1,1,82,1016.000,5.000,24938,17358,-306,-4076,-545,-42,47,13301,1117,0,8,13425,869,-1109,1852330,165,-1255,923,1245
1035,1727,22,10,0,24,29,-2,6,-2,1,84,1037.000,-2.000,24958,17334,-254,-4054,-539,-45,52,12943,999,3,8,13404,872,-1126,1851768,165,-590,916,1094
1035,1727,6,-11,0,8,24,1,-10,-3,1,84,1037.000,-2.000,24958,17334,-254,-4054,-539,-45,52,12943,999,3,8,13404,872,-1126,1851768,165,-590,916,1094
1035,1727,19,2,-3,21,49,-1,6,0,1,84,1037.000,-2.000,24958,17334,-254,-4054,-539,-45,52,12943,999,3,8,13404,872,-1126,1851768,165,-590,916,1094
1035,1727,25,12,6,23,28,1,5,0,1,84,1037.000,-2.000,24958,17334,-254,-4054,-539,-45,52,12943,999,3,8,13404,872,-1126,1851768,165,-590,916,1094
1057,1750,23,8,3,25,30,0,6,2,1,86,1057.000,0.000,24978,17366,-232,-4134,-538,-40,53,13495,646,-4,8,13409,862,-1095,1852448,165,-691,585,1058
1057,1750,6,-12,2,7,25,2,-10,-1,1,86,1057.000,0.000,24978,17366,-232,-4134,-538,-40,53,13495,646,-4,8,13409,862,-1095,1852448,165,-691,585,1058
1058,1750,19,2,1,21,53,-1,5,0,1,86,1057.000,1.000,24978,17366,-232,-4134,-538,-40,53,13495,646,-4,8,13409,862,-1095,1852448,165,-691,585,1058
1058,1750,23,7,-6,23,27,-3,3,-1,1,86,1057.000,1.000,24978,17366,-232,-4134,-538,-40,53,13495,646,-4,8,13409,862,-1095,1852448,165,-691,585,1058
1080,1772,23,7,2,24,30,0,8,-2,1,88,1077.000,3.000,24999,17382,-230,-4134,-538,-48,45,13422,778,-4,8,13408,844,-1065,1855676,165,-622,71,992
1080,1772,7,-15,-10,6,23,3,-7,-3,1,88,1077.000,3.000,24999,17382,-230,-4134,-538,-48,45,13422,778,-4,8,13408,844,-1065,1855676,165,-622,71,992
1081,1773,19,2,3,20,44,-2,4,-2,1,88,1077.000,4.000,24999,17382,-230,-4134,-538,-48,45,13422,778,-4,8,13408,844,-1065,1855676,165,-622,71,992
1081,1773,23,14,0,24,26,1,7,2,1,88,1077.000,4.000,24999,17382,-230,-4134,-538,-48,45,13422,778,-4,8,13408,844,-1065,1855676,165,-622,71,992
1095,1787,23,8,0,26,27,-6,11,0,1,90,1097.000,-2.000,25019,17348,-238,-4170,-545,-44,37,13427,751,-5,8,13411,835,-1042,1859785,165,-666,-162,942
1095,1787,7,-14,0,9,26,1,-9,-2,1,90,1097.000,-2.000,25019,17348,-238,-4170,-545,-44,37,13427,751,-5,8,13411,835,-1042,1859785,165,-666,-162,942
1095,1788,19,3,-3,18,43,0,4,-2,1,90,1097.000,-2.000,25019,17348,-238,-4170,-545,-44,37,13427,751,-5,8,13411,835,-1042,1859785,165,-666,-162,942
1096,1788,22,10,4,23,24,0,5,1,1,90,1097.000,-1.000,25019,17348,-238,-4170,-545,-44,37,13427,751,-5,8,13411,835,-1042,1859785,165,-666,-162,942
1119,1811,23,8,-4,25,27,0,7,3,1,92,1118.000,1.000,25039,17332,-304,-4080,-537,-43,41,13345,976,-3,8,13407,841,-1066,1865663,165,-552,9,974
1119,1811,5,-14,0,11,26,2,-8,1,1,92,1118.000,1.000,25039,17332,-304,-4080,-537,-43,41,13345,976,-3,8,13407,841,-1066,1865663,165,-552,9,974
1119,1812,18,3,-1,19,45,-3,8,-1,1,92,1118.000,1.000,25039,17332,-304,-4080,-537,-43,41,13345,976,-3,8,13407,841,-1066,1865663,165,-552,9,974
1119,1812,22,14,3,23,27,0,3,-1,1,92,1118.000,1.000,25039,17332,-304,-4080,-537,-43,41,13345,976,-3,8,13407,841,-1066,1865663,165,-552,9,974
1140,1832,24,9,-4,25,27,-3,10,1,1,94,1138.000,2.000,25059,17370,-260,-4102,-543,-41,42,13306,822,-2,8,13394,847,-1121,1870296,165,-206,183,1037
1140,1832,6,-13,-8,13,26,1,-12,-3,1,94,1138.000,2.000,25059,17370,-260,-4102,-543,-41,42,13306,822,-2,8,13394,847,-1121,1870296,165,-206,183,1037
1141,1833,17,4,7,20,40,0,7,0,1,94,1138.000,3.000,25059,17370,-260,-4102,-543,-41,42,13306,822,-2,8,13394,847,-1121,1870296,165,-206,183,1037
1141,1833,21,9,-3,22,24,-2,3,1,1,94,1138.000,3.000,25059,17370,-260,-4102,-543,-41,42,13306,822,-2,8,13394,847,-1121,1870296,165,-206,183,1037
1154,1846,22,9,-2,23,27,0,8,2,1,96,1158.000,-4.000,25079,17308,-310,-4186,-545,-41,42,13414,1026,-5,8,13395,859,-1159,1873406,165,-215,540,1174
1154,1846,7,-13,2,13,26,0,-9,-2,1,96,1158.000,-4.000,25079,17308,-310,-4186,-545,-41,42,13414,1026,-5,8,13395,859,-1159,1873406,165,-215,540,1174
1162,1855,16,3,1,32,40,-3,5,-1,1,96,1158.000,4.000,25079,17308,-310,-4186,-545,-41,42,13414,1026,-5,8,13395,859,-1159,1873406,165,-215,540,1174
1162,1855,21,12,1,21,28,0,4,0,1,96,1158.000,4.000,25079,17308,-310,-4186,-545,-41,42,13414,1026,-5,8,13395,859,-1159,1873406,165,-215,540,1174
1177,1870,23,8,5,25,26,-1,7,1,1,98,1178.000,-1.000,25100,17362,-282,-4092,-542,-39,39,13425,995,-6,8,13386,866,-1187,1876618,165,13,711,1171
1177,1870,8,-13,0,16,25,0,-8,-3,1,98,1178.000,-1.000,25100,17362,-282,-4092,-542,-39,39,13425,995,-6,8,13386,866,-1187,1876618,165,13,711,1171
1178,1870,18,3,-4,22,39,-2,4,-2,1,98,1178.000,0.000,25100,17362,-282,-4092,-542,-39,39,13425,995,-6,8,13386,866,-1187,1876618,165,13,711,1171
1178,1870,20,9,-2,21,24,0,7,-1,1,98,1178.000,0.000,25100,17362,-282,-4092,-542,-39,39,13425,995,-6,8,13386,866,-1187,1876618,165,13,711,1171
1201,1893,21,8,1,24,26,-1,7,3,1,100,1199.000,2.000,25120,17302,-268,-4160,-542,-42,47,13541,1001,-8,8,13395,867,-1176,1879677,165,-208,720,1226
1201,1893,11,-11,0,15,25,4,-10,-1,1,100,1199.000,2.000,25120,17302,-268,-4160,-542,-42,47,13541,1001,-8,8,13395,867,-1176,1879677,165,-208,720,1226
1201,1894,23,4,3,26,37,-5,7,0,1,100,1199.000,2.000,25120,17302,-268,-4160,-542,-42,47,13541,1001,-8,8,13395,867,-1176,1879677,165,-208,720,1226
1201,1894,21,8,1,21,26,-2,4,1,1,100,1199.000,2.000,25120,17302,-268,-4160,-542,-42,47,13541,1001,-8,8,13395,867,-1176,1879677,165,-208,720,1226
1214,1907,22,7,2,23,25,-2,6,1,1,101,1209.000,5.000,25130,17394,-234,-4172,-530,-42,45,13478,703,-7,8,13399,862,-1167,1881978,165,-303,597,1231
1214,1907,12,-14,-5,17,26,2,-10,-3,1,101,1209.000,5.000,25130,17394,-234,-4172,-530,-42,45,13478,703,-7,8,13399,862,-1167,1881978,165,-303,597,1231
1223,1914,23,3,-1,27,33,-1,5,-4,1,102,1219.000,4.000,25140,17352,-238,-4154,-537,-36,41,13405,996,-5,8,13402,858,-1161,1884502,165,-370,492,1234
1223,1914,20,10,-3,20,26,-1,7,0,1,102,1219.000,4.000,25140,17352,-238,-4154,-537,-36,41,13405,996,-5,8,13402,858,-1161,1884502,165,-370,492,1234
1237,1929,22,7,3,24,23,-3,9,2,1,104,1239.000,-2.000,25161,17378,-248,-4094,-540,-40,48,13205,817,-4,8,13398,851,-1179,1890370,165,-281,330,1247
1237,1929,13,-14,0,17,24,1,-11,-5,1,104,1239.000,-2.000,25161,17378,-248,-4094,-540,-40,48,13205,817,-4,8,13398,851,-1179,1890370,165,-281,330,1247
1238,1930,24,4,-2,29,52,-2,2,1,1,104,1239.000,-1.000,25161,17378,-248,-4094,-540,-40,48,13205,817,-4,8,13398,851,-1179,1890370,165,-281,330,1247
1238,1930,20,11,-5,20,26,0,6,1,1,104,1239.000,-1.000,25161,17378,-248,-4094,-540,-40,48,13205,817,-4,8,13398,851,-1179,1890370,165,-281,330,1247
1268,1960,22,7,-1,23,26,-3,5,-1,1,107,1270.000,-2.000,25191,17364,-258,-4116,-541,-50,45,13465,825,-7,8,13380,850,-1246,1896764,165,146,301,1294
1268,1960,14,-10,3,18,24,2,-8,-1,1,107,1270.000,-2.000,25191,17364,-258,-4116,-541,-50,45,13465,825,-7,8,13380,850,-1246,1896764,165,146,301,1294
1269,1961,23,2,2,31,48,2,2,-1,1,107,1270.000,-1.000,25191,17364,-258,-4116,-541,-50,45,13465,825,-7,8,13380,850,-1246,1896764,165,146,301,1294
1269,1961,20,11,-4,21,28,-3,5,2,1,107,1270.000,-1.000,25191,17364,-258,-4116,-541,-50,45,13465,825,-7,8,13380,850,-1246,1896764,165,146,301,1294
1274,1967,22,7,-7,23,28,-3,6,2,1,107,1270.000,4.000,25191,17364,-258,-4116,-541,-50,45,13465,825,-7,8,13380,850,-1246,1896764,165,146,301,1294
1274,1967,15,-12,4,18,25,2,-13,-5,1,107,1270.000,4.000,25191,17364,-258,-4116,-541,-50,45,13465,825,-7,8,13380,850,-1246,1896764,165,146,301,1294
1282,1975,27,3,1,31,49,-2,8,-1,1,108,1280.000,2.000,25201,17322,-292,-4162,-533,-41,42,13570,1090,-8,8,13385,854,-1232,1898527,165,21,395,1316
1282,1975,20,10,5,20,29,-1,4,2,1,108,1280.000,2.000,25201,17322,-292,-4162,-533,-41,42,13570,1090,-8,8,13385,854,-1232,1898527,165,21,395,1316
1298,1990,22,7,-3,24,18,1,4,1,1,110,1300.000,-2.000,25221,17398,-218,-4110,-538,-43,45,13243,661,-4,8,13383,842,-1240,1903579,165,72,127,1267
1298,1990,16,-10,-4,19,23,1,-9,-3,1,110,1300.000,-2.000,25221,17398,-218,-4110,-538,-43,45,13243,661,-4,8,13383,842,-1240,1903579,165,72,127,1267
1349,1997,27,2,0,32,48,0,8,2,1,111,1351.000,-2.000,25231,17370,-216,-4138,-539,-46,44,13507,715,-7,8,13384,836,-1235,1906110,165,56,-19,1222
1349,1997,19,8,-2,21,27,-2,4,0,1,111,1351.000,-2.000,25231,17370,-216,-4138,-539,-46,44,13507,715,-7,8,13384,836,-1235,1906110,165,56,-19,1222
1349,2012,22,6,0,23,19,-1,5,1,1,111,1351.000,-2.000,25231,17370,-216,-4138,-539,-46,44,13507,715,-7,8,13384,836,-1235,1906110,165,56,-19,1222
1349,2012,16,-11,5,19,24,1,-11,-1,1,111,1351.000,-2.000,25231,17370,-216,-4138,-539,-46,44,13507,715,-7,8,13384,836,-1235,1906110,165,56,-19,1222
1349,2013,27,4,2,33,40,-4,5,-1,1,111,1351.000,-2.000,25231,17370,-216,-4138,-539,-46,44,13507,715,-7,8,13384,836,-1235,1906110,165,56,-19,1222
1349,2013,20,8,-3,21,29,0,4,-1,1,111,1351.000,-2.000,25231,17370,-216,-4138,-539,-46,44,13507,715,-7,8,13384,836,-1235,1906110,165,56,-19,1222
1350,2026,22,6,0,25,23,-2,5,-1,1,111,1351.000,-1.000,25231,17370,-216,-4138,-539,-46,44,13507,715,-7,8,13384,836,-1235,1906110,165,56,-19,1222
1350,2026,17,-12,-4,19,22,4,-10,-2,1,111,1351.000,-1.000,25231,17370,-216,-4138,-539,-46,44,13507,715,-7,8,13384,836,-1235,1906110,165,56,-19,1222
1350,2035,30,2,4,31,47,-3,7,2,1,111,1351.000,-1.000,25231,17370,-216,-4138,-539,-46,44,13507,715,-7,8,13384,836,-1235,1906110,165,56,-19,1222
1350,2035,19,9,-1,21,30,-2,1,3,1,111,1351.000,-1.000,25231,17370,-216,-4138,-539,-46,44,13507,715,-7,8,13384,836,-1235,1906110,165,56,-19,1222
1357,2049,22,6,-5,23,20,2,4,3,1,114,1356.000,1.000,25262,17342,-286,-4060,-531,-45,47,13269,877,-3,8,13379,834,-1260,1915080,165,159,-64,1259
1357,2049,18,-12,3,19,24,4,-8,-1,1,114,1356.000,1.000,25262,17342,-286,-4060,-531,-45,47,13269,877,-3,8,13379,834,-1260,1915080,165,159,-64,1259
1358,2050,31,6,1,30,50,-4,7,0,1,115,1358.000,0.000,25272,17360,-254,-4210,-534,-50,43,13529,832,-7,8,13390,833,-1210,1917871,165,-51,-105,1153
1358,2050,19,9,5,20,27,-4,0,0,1,115,1358.000,0.000,25272,17360,-254,-4210,-534,-50,43,13529,832,-7,8,13390,833,-1210,1917871,165,-51,-105,1153
1380,2073,22,6,-9,24,21,-3,5,1,1,118,1381.000,-1.000,25303,17314,-278,-4114,-536,-46,47,13232,1020,-2,8,13395,834,-1198,1930601,165,-117,-108,1133
1380,2073,18,-11,1,19,23,1,-9,-2,1,118,1381.000,-1.000,25303,17314,-278,-4114,-536,-46,47,13232,1020,-2,8,13395,834,-1198,1930601,165,-117,-108,1133
1381,2073,31,7,1,31,45,0,5,0,1,118,1381.000,0.000,25303,17314,-278,-4114,-536,-46,47,13232,1020,-2,8,13395,834,-1198,1930601,165,-117,-108,1133
1381,2073,20,12,3,21,30,2,4,0,1,118,1381.000,0.000,25303,17314,-278,-4114,-536,-46,47,13232,1020,-2,8,13395,834,-1198,1930601,165,-117,-108,1133
1394,2086,21,6,1,22,25,-2,4,1,1,119,1391.000,3.000,25313,17368,-232,-4140,-539,-44,42,13374,795,-4,8,13396,830,-1203,1935109,165,-126,-180,1135
1394,2086,17,-13,-1,19,23,-2,-10,-3,1,119,1391.000,3.000,25313,17368,-232,-4140,-539,-44,42,13374,795,-4,8,13396,830,-1203,1935109,165,-126,-180,1135
1402,2095,28,7,0,30,46,-1,7,2,1,120,1402.000,0.000,25323,17350,-244,-4142,-540,-49,33,13625,737,-7,8,13398,827,-1201,1939573,165,-150,-219,1125
1402,2095,19,10,-1,19,31,-1,6,2,1,120,1402.000,0.000,25323,17350,-244,-4142,-540,-49,33,13625,737,-7,8,13398,827,-1201,1939573,165,-150,-219,1125
1417,2110,22,6,1,22,21,2,6,0,1,121,1412.000,5.000,25333,17356,-268,-4160,-539,-47,42,13429,902,-4,8,13402,828,-1182,1944167,165,-212,-202,1083
1417,2110,17,-10,3,19,21,0,-10,-4,1,121,1412.000,5.000,25333,17356,-268,-4160,-539,-47,42,13429,902,-4,8,13402,828,-1182,1944167,165,-212,-202,1083
1418,2110,30,8,-3,30,44,-3,7,-4,1,122,1422.000,-4.000,25344,17356,-250,-4134,-538,-39,43,13350,656,-3,8,13402,827,-1186,1949088,166,-208,-220,1091
1418,2110,19,10,4,21,29,0,7,0,1,122,1422.000,-4.000,25344,17356,-250,-4134,-538,-39,43,13350,656,-3,8,13402,827,-1186,1949088,166,-208,-220,1091
1440,2132,21,6,-3,21,22,-2,3,2,1,124,1442.000,-2.000,25364,17358,-284,-4016,-544,-39,47,12955,941,1,8,13376,833,-1293,1958448,165,265,-50,1329
1440,2132,17,-11,-5,19,23,1,-10,-3,1,124,1442.000,-2.000,25364,17358,-284,-4016,-544,-39,47,12955,941,1,8,13376,833,-1293,1958448,165,265,-50,1329
1441,2133,29,9,3,32,37,-4,5,-1,1,124,1442.000,-1.000,25364,17358,-284,-4016,-544,-39,47,12955,941,1,8,13376,833,-1293,1958448,165,265,-50,1329
1441,2133,19,12,-6,19,30,1,6,1,1,124,1442.000,-1.000,25364,17358,-284,-4016,-544,-39,47,12955,941,1,8,13376,833,-1293,1958448,165,265,-50,1329
1463,2155,21,7,4,21,17,0,3,1,1,126,1463.000,0.000,25384,17362,-300,-4078,-540,-45,43,13261,1087,-3,8,13368,836,-1327,1964968,165,407,43,1426
1463,2155,17,-8,-2,18,23,1,-9,-2,1,126,1463.000,0.000,25384,17362,-300,-4078,-540,-45,43,13261,1087,-3,8,13368,836,-1327,1964968,165,407,43,1426
1464,2156,26,4,-3,31,44,-1,8,-1,1,126,1463.000,1.000,25384,17362,-300,-4078,-540,-45,43,13261,1087,-3,8,13368,836,-1327,1964968,165,407,43,1426
1464,2156,19,10,2,20,28,-2,1,1,1,126,1463.000,1.000,25384,17362,-300,-4078,-540,-45,43,13261,1087,-3,8,13368,836,-1327,1964968,165,407,43,1426
1477,2170,20,7,2,20,16,0,2,3,1,127,1473.000,4.000,25394,17368,-286,-4102,-541,-48,48,13300,849,-4,8,13366,839,-1342,1967825,169,466,116,1484
1477,2170,17,-13,0,19,22,3,-11,0,1,127,1473.000,4.000,25394,17368,-286,-4102,-541,-48,48,13300,849,-4,8,13366,839,-1342,1967825,169,466,116,1484
1478,2170,27,8,0,31,38,0,10,3,1,127,1473.000,5.000,25394,17368,-286,-4102,-541,-48,48,13300,849,-4,8,13366,839,-1342,1967825,169,466,116,1484
1478,2170,18,10,0,20,29,-1,6,1,1,127,1473.000,5.000,25394,17368,-286,-4102,-541,-48,48,13300,849,-4,8,13366,839,-1342,1967825,169,466,116,1484
1500,2193,20,7,-2,20,18,-1,2,2,1,130,1503.000,-3.000,25425,17340,-264,-4092,-546,-40,42,13224,755,-4,8,13359,846,-1373,1975348,166,596,262,1597
1500,2193,17,-8,2,18,22,1,-8,-5,1,130,1503.000,-3.000,25425,17340,-264,-4092,-546,-40,42,13224,755,-4,8,13359,846,-1373,1975348,166,596,262,1597
1501,2194,26,5,-1,37,39,0,3,0,1,130,1503.000,-2.000,25425,17340,-264,-4092,-546,-40,42,13224,755,-4,8,13359,846,-1373,1975348,166,596,262,1597
1501,2194,18,11,7,20,30,-4,2,0,1,130,1503.000,-2.000,25425,17340,-264,-4092,-546,-40,42,13224,755,-4,8,13359,846,-1373,1975348,166,596,262,1597
1523,2215,19,6,-2,20,20,1,2,0,1,132,1523.000,0.000,25445,17330,-288,-4174,-540,-39,44,13626,966,-10,8,13376,855,-1351,1981095,165,287,466,1802
1523,2215,17,-9,-5,19,21,2,-8,-3,1,132,1523.000,0.000,25445,17330,-288,-4174,-540,-39,44,13626,966,-10,8,13376,855,-1351,1981095,165,287,466,1802
1524,2216,26,8,4,35,34,-3,4,1,1,132,1523.000,1.000,25445,17330,-288,-4174,-540,-39,44,13626,966,-10,8,13376,855,-1351,1981095,165,287,466,1802
1524,2216,18,9,-6,21,29,-1,5,1,1,132,1523.000,1.000,25445,17330,-288,-4174,-540,-39,44,13626,966,-10,8,13376,855,-1351,1981095,165,287,466,1802
1537,2229,19,6,4,21,16,0,3,2,1,133,1534.000,3.000,25455,17364,-308,-4168,-540,-40,42,13404,1003,-7,8,13381,860,-1341,1984761,165,209,571,1866
1537,2229,16,-9,0,17,23,-2,-9,-3,1,133,1534.000,3.000,25455,17364,-308,-4168,-540,-40,42,13404,1003,-7,8,13381,860,-1341,1984761,165,209,571,1866
1545,2237,36,5,-2,33,36,-2,7,-1,1,134,1544.000,1.000,25465,17366,-260,-4120,-539,-44,45,13330,788,-6,8,13379,859,-1345,1988807,165,232,549,1849
1545,2237,19,13,3,21,27,-2,2,-1,1,134,1544.000,1.000,25465,17366,-260,-4120,-539,-44,45,13330,788,-6,8,13379,859,-1345,1988807,165,232,549,1849
1561,2253,19,7,-1,20,16,0,3,1,1,136,1564.000,-3.000,25485,17346,-260,-4146,-543,-34,47,13436,754,-8,8,13382,860,-1346,1997114,165,180,564,1886
1561,2253,16,-9,6,19,23,2,-11,-2,1,136,1564.000,-3.000,25485,17346,-260,-4146,-543,-34,47,13436,754,-8,8,13382,860,-1346,1997114,165,180,564,1886
1561,2254,33,7,4,37,39,-1,5,-1,1,136,1564.000,-3.000,25485,17346,-260,-4146,-543,-34,47,13436,754,-8,8,13382,860,-1346,1997114,165,180,564,1886
1561,2254,19,9,-7,21,28,-4,4,-1,1,136,1564.000,-3.000,25485,17346,-260,-4146,-543,-34,47,13436,754,-8,8,13382,860,-1346,1997114,165,180,564,1886
1599,2291,19,6,-1,18,21,1,1,0,1,139,1594.000,5.000,25516,17350,-270,-4152,-535,-38,42,13549,793,-10,8,13385,862,-1342,2010638,166,121,602,1918
1600,2291,16,-6,2,18,21,2,-7,-4,1,140,1604.000,-4.000,25526,17350,-238,-4168,-541,-38,45,13377,672,-8,8,13389,858,-1354,2015576,165,48,556,1983
1600,2292,33,8,3,38,32,-4,9,3,1,140,1604.000,-4.000,25526,17350,-238,-4168,-541,-38,45,13377,672,-8,8,13389,858,-1354,2015576,165,48,556,1983
1600,2292,20,8,-3,21,30,0,6,0,1,140,1604.000,-4.000,25526,17350,-238,-4168,-541,-38,45,13377,672,-8,8,13389,858,-1354,2015576,165,48,556,1983
1602,2294,18,7,-4,17,17,-1,0,4,1,140,1604.000,-2.000,25526,17350,-238,-4168,-541,-38,45,13377,672,-8,8,13389,858,-1354,2015576,165,48,556,1983
1602,2294,18,-5,4,19,20,1,-10,-1,1,140,1604.000,-2.000,25526,17350,-238,-4168,-541,-38,45,13377,672,-8,8,13389,858,-1354,2015576,165,48,556,1983
1605,2298,34,7,-4,38,34,1,6,-1,1,140,1604.000,1.000,25526,17350,-238,-4168,-541,-38,45,13377,672,-8,8,13389,858,-1354,2015576,165,48,556,1983
1605,2298,19,10,1,22,29,-2,3,2,1,140,1604.000,1.000,25526,17350,-238,-4168,-541,-38,45,13377,672,-8,8,13389,858,-1354,2015576,165,48,556,1983
1629,2320,19,5,-2,20,24,1,2,1,1,142,1624.000,5.000,25546,17358,-222,-4068,-541,-44,46,13360,731,-8,8,13386,848,-1408,2024940,165,97,412,2071
1629,2320,17,-6,2,17,22,1,-9,-5,1,142,1624.000,5.000,25546,17358,-222,-4068,-541,-44,46,13360,731,-8,8,13386,848,-1408,2024940,165,97,412,2071
1629,2321,28,7,-1,36,44,-4,2,-2,1,142,1624.000,5.000,25546,17358,-222,-4068,-541,-44,46,13360,731,-8,8,13386,848,-1408,2024940,165,97,412,2071
1629,2321,20,11,1,23,32,-1,6,0,1,142,1624.000,5.000,25546,17358,-222,-4068,-541,-44,46,13360,731,-8,8,13386,848,-1408,2024940,165,97,412,2071
1651,2342,18,5,1,18,19,3,-1,-5,1,145,1655.000,-4.000,25576,17350,-232,-4124,-530,-43,38,13269,761,-6,8,13371,841,-1461,2035344,165,316,300,2052
1651,2342,18,-5,-9,17,22,-2,-9,-1,1,145,1655.000,-4.000,25576,17350,-232,-4124,-530,-43,38,13269,761,-6,8,13371,841,-1461,2035344,165,316,300,2052
1651,2343,34,7,3,35,34,-3,7,1,1,145,1655.000,-4.000,25576,17350,-232,-4124,-530,-43,38,13269,761,-6,8,13371,841,-1461,2035344,165,316,300,2052
1651,2343,20,8,-2,22,29,-4,3,2,1,145,1655.000,-4.000,25576,17350,-232,-4124,-530,-43,38,13269,761,-6,8,13371,841,-1461,2035344,165,316,300,2052
1657,2350,15,6,3,15,0,-1,-1,1,1,145,1655.000,2.000,25576,17350,-232,-4124,-530,-43,38,13269,761,-6,8,13371,841,-1461,2035344,165,316,300,2052
1657,2350,17,-3,5,19,23,3,-8,-2,1,145,1655.000,2.000,25576,17350,-232,-4124,-530,-43,38,13269,761,-6,8,13371,841,-1461,2035344,165,316,300,2052
1658,2350,34,11,-4,35,35,0,7,-1,1,145,1655.000,3.000,25576,17350,-232,-4124,-530,-43,38,13269,761,-6,8,13371,841,-1461,2035344,165,316,300,2052
1658,2350,20,8,0,22,31,1,4,-1,1,145,1655.000,3.000,25576,17350,-232,-4124,-530,-43,38,13269,761,-6,8,13371,841,-1461,2035344,165,316,300,2052
1681,2372,14,6,-6,11,6,-1,-1,2,1,148,1685.000,-4.000,25606,17336,-248,-4078,-539,-39,52,13318,719,-6,8,13361,844,-1487,2044595,165,456,341,2080
1681,2372,17,-6,0,18,23,3,-7,-3,1,148,1685.000,-4.000,25606,17336,-248,-4078,-539,-39,52,13318,719,-6,8,13361,844,-1487,2044595,165,456,341,2080
1681,2373,34,8,-1,31,22,-1,5,5,1,148,1685.000,-4.000,25606,17336,-248,-4078,-539,-39,52,13318,719,-6,8,13361,844,-1487,2044595,165,456,341,2080
1681,2373,21,10,1,22,28,-1,3,0,1,148,1685.000,-4.000,25606,17336,-248,-4078,-539,-39,52,13318,719,-6,8,13361,844,-1487,2044595,165,456,341,2080
1703,2395,14,6,-3,15,1,2,0,-2,1,150,1705.000,-2.000,25627,17344,-244,-4092,-534,-40,44,13304,786,-5,8,13365,842,-1480,2051236,165,392,296,2051
1703,2395,16,-3,-1,17,22,0,-9,-4,1,150,1705.000,-2.000,25627,17344,-244,-4092,-534,-40,44,13304,786,-5,8,13365,842,-1480,2051236,165,392,296,2051
1704,2396,33,9,3,35,28,0,7,-1,1,150,1705.000,-1.000,25627,17344,-244,-4092,-534,-40,44,13304,786,-5,8,13365,842,-1480,2051236,165,392,296,2051
1704,2396,21,7,-1,24,30,1,4,1,1,150,1705.000,-1.000,25627,17344,-244,-4092,-534,-40,44,13304,786,-5,8,13365,842,-1480,2051236,165,392,296,2051
1717,2410,13,5,0,13,-4,-3,-1,4,1,151,1715.000,2.000,25637,17342,-250,-4126,-541,-42,45,13483,825,-8,8,13365,840,-1481,2054781,165,382,271,2036
1717,2410,16,-1,1,17,22,0,-7,-1,1,151,1715.000,2.000,25637,17342,-250,-4126,-541,-42,45,13483,825,-8,8,13365,840,-1481,2054781,165,382,271,2036
1718,2410,31,8,0,34,32,0,6,-1,1,151,1715.000,3.000,25637,17342,-250,-4126,-541,-42,45,13483,825,-8,8,13365,840,-1481,2054781,165,382,271,2036
1718,2410,21,9,-2,22,28,-2,4,-2,1,151,1715.000,3.000,25637,17342,-250,-4126,-541,-42,45,13483,825,-8,8,13365,840,-1481,2054781,165,382,271,2036
1741,2433,12,6,-1,13,9,0,-4,2,1,154,1746.000,-5.000,25667,17386,-284,-4110,-541,-38,47,13250,1012,-4,8,13364,847,-1474,2067368,165,396,381,2074
1741,2433,16,-4,0,16,22,1,-6,-2,1,154,1746.000,-5.000,25667,17386,-284,-4110,-541,-38,47,13250,1012,-4,8,13364,847,-1474,2067368,165,396,381,2074
1741,2434,30,8,2,35,33,-2,3,2,1,154,1746.000,-5.000,25667,17386,-284,-4110,-541,-38,47,13250,1012,-4,8,13364,847,-1474,2067368,165,396,381,2074
1741,2434,20,11,9,23,28,-2,5,0,1,154,1746.000,-5.000,25667,17386,-284,-4110,-541,-38,47,13250,1012,-4,8,13364,847,-1474,2067368,165,396,381,2074
1770,2462,11,5,-12,10,30,1,-2,-1,1,156,1766.000,4.000,25687,17352,-228,-4226,-536,-37,47,13450,793,-8,8,13371,843,-1461,2076693,165,273,312,2035
1771,2462,15,-3,1,17,24,-1,-7,-2,1,156,1766.000,5.000,25687,17352,-228,-4226,-536,-37,47,13450,793,-8,8,13371,843,-1461,2076693,165,273,312,2035
1771,2463,32,9,1,33,35,-3,4,1,1,156,1766.000,5.000,25687,17352,-228,-4226,-536,-37,47,13450,793,-8,8,13371,843,-1461,2076693,165,273,312,2035
1771,2463,20,8,-6,22,28,2,4,2,1,156,1766.000,5.000,25687,17352,-228,-4226,-536,-37,47,13450,793,-8,8,13371,843,-1461,2076693,165,273,312,2035
1777,2470,13,5,6,12,-6,-1,-2,-2,1,157,1776.000,1.000,25698,17354,-286,-4212,-537,-40,44,13593,885,-10,8,13381,846,-1426,2081963,166,139,344,2008
1777,2470,16,-3,-2,16,24,0,-9,-3,1,157,1776.000,1.000,25698,17354,-286,-4212,-537,-40,44,13593,885,-10,8,13381,846,-1426,2081963,166,139,344,2008
1778,2470,30,8,-1,33,33,-2,6,-1,1,157,1776.000,2.000,25698,17354,-286,-4212,-537,-40,44,13593,885,-10,8,13381,846,-1426,2081963,166,139,344,2008
1778,2470,21,10,0,22,27,0,4,3,1,157,1776.000,2.000,25698,17354,-286,-4212,-537,-40,44,13593,885,-10,8,13381,846,-1426,2081963,166,139,344,2008
1801,2493,11,5,-2,11,-4,-3,-2,2,1,159,1796.000,5.000,25718,17366,-280,-4108,-537,-36,42,13305,897,-5,8,13380,852,-1394,2094595,165,143,423,1937
1801,2493,14,-2,0,16,22,4,-7,-5,1,159,1796.000,5.000,25718,17366,-280,-4108,-537,-36,42,13305,897,-5,8,13380,852,-1394,2094595,165,143,423,1937
1801,2494,31,9,-2,35,26,2,3,0,1,159,1796.000,5.000,25718,17366,-280,-4108,-537,-36,42,13305,897,-5,8,13380,852,-1394,2094595,165,143,423,1937
1801,2494,20,10,0,23,27,0,2,2,1,159,1796.000,5.000,25718,17366,-280,-4108,-537,-36,42,13305,897,-5,8,13380,852,-1394,2094595,165,143,423,1937
1823,2515,11,4,2,13,15,1,-5,0,1,162,1827.000,-4.000,25748,17354,-262,-4152,-543,-47,55,13470,838,-8,8,13379,855,-1393,2114817,165,158,447,1930
1823,2515,15,-3,-3,14,23,-2,-4,-2,1,162,1827.000,-4.000,25748,17354,-262,-4152,-543,-47,55,13470,838,-8,8,13379,855,-1393,2114817,165,158,447,1930
1824,2516,31,9,0,31,33,-2,6,-2,1,162,1827.000,-3.000,25748,17354,-262,-4152,-543,-47,55,13470,838,-8,8,13379,855,-1393,2114817,165,158,447,1930
1824,2516,21,12,-8,23,28,-2,5,0,1,162,1827.000,-3.000,25748,17354,-262,-4152,-543,-47,55,13470,838,-8,8,13379,855,-1393,2114817,165,158,447,1930
1837,2530,10,4,1,11,16,4,-5,0,1,163,1837.000,0.000,25758,17394,-230,-4114,-542,-47,46,13337,755,-6,8,13377,851,-1415,2121737,165,191,393,1940
1837,2530,14,-2,0,17,24,0,-7,-4,1,163,1837.000,0.000,25758,17394,-230,-4114,-542,-47,46,13337,755,-6,8,13377,851,-1415,2121737,165,191,393,1940
1838,2530,30,8,1,31,33,0,4,0,1,163,1837.000,1.000,25758,17394,-230,-4114,-542,-47,46,13337,755,-6,8,13377,851,-1415,2121737,165,191,393,1940
1838,2530,20,10,6,23,26,1,4,4,1,163,1837.000,1.000,25758,17394,-230,-4114,-542,-47,46,13337,755,-6,8,13377,851,-1415,2121737,165,191,393,1940
1861,2552,10,4,-11,13,21,-2,-2,0,1,165,1857.000,4.000,25778,17300,-250,-4146,-539,-34,46,13466,879,-8,8,13382,846,-1429,2135106,165,110,322,1974
1861,2552,14,-2,5,16,25,2,-5,-5,1,165,1857.000,4.000,25778,17300,-250,-4146,-539,-34,46,13466,879,-8,8,13382,846,-1429,2135106,165,110,322,1974
1861,2553,30,9,5,36,30,-2,5,-1,1,165,1857.000,4.000,25778,17300,-250,-4146,-539,-34,46,13466,879,-8,8,13382,846,-1429,2135106,165,110,322,1974
1861,2553,21,7,2,22,26,0,5,-2,1,165,1857.000,4.000,25778,17300,-250,-4146,-539,-34,46,13466,879,-8,8,13382,846,-1429,2135106,165,110,322,1974
1883,2576,10,3,1,12,8,2,-3,1,1,168,1887.000,-4.000,25809,17406,-204,-4070,-538,-42,41,13295,700,-5,8,13371,838,-1501,2155198,165,238,229,2071
1883,2576,15,-2,-6,17,27,4,-7,-3,1,168,1887.000,-4.000,25809,17406,-204,-4070,-538,-42,41,13295,700,-5,8,13371,838,-1501,2155198,165,238,229,2071
1884,2576,29,7,-2,24,31,-2,3,1,1,168,1887.000,-3.000,25809,17406,-204,-4070,-538,-42,41,13295,700,-5,8,13371,838,-1501,2155198,165,238,229,2071
1884,2576,21,5,1,22,26,-1,1,1,1,168,1887.000,-3.000,25809,17406,-204,-4070,-538,-42,41,13295,700,-5,8,13371,838,-1501,2155198,165,238,229,2071
1897,2590,11,3,-1,8,8,1,-3,2,1,169,1897.000,0.000,25819,17328,-234,-4118,-543,-41,49,13413,785,-6,8,13371,835,-1514,2160755,165,239,189,2073
1897,2590,14,-1,0,17,24,0,-4,0,1,169,1897.000,0.000,25819,17328,-234,-4118,-543,-41,49,13413,785,-6,8,13371,835,-1514,2160755,165,239,189,2073
1905,2597,31,11,2,28,31,0,4,1,1,170,1907.000,-2.000,25829,17322,-220,-4164,-546,-42,47,13527,699,-9,8,13376,831,-1507,2166151,165,172,114,2008
1905,2597,21,8,-1,23,28,-1,4,2,1,170,1907.000,-2.000,25829,17322,-220,-4164,-546,-42,47,13527,699,-9,8,13376,831,-1507,2166151,165,172,114,2008
1921,2613,11,2,-7,8,5,1,-4,-2,1,171,1917.000,4.000,25839,17350,-254,-4144,-539,-37,43,13438,809,-7,8,13378,830,-1499,2171924,165,147,100,1978
1921,2613,15,1,5,17,24,0,-7,-3,1,171,1917.000,4.000,25839,17350,-254,-4144,-539,-37,43,13438,809,-7,8,13378,830,-1499,2171924,165,147,100,1978
1921,2614,32,9,-4,32,30,0,3,1,1,171,1917.000,4.000,25839,17350,-254,-4144,-539,-37,43,13438,809,-7,8,13378,830,-1499,2171924,165,147,100,1978
1921,2614,21,9,1,22,29,-1,4,0,1,171,1917.000,4.000,25839,17350,-254,-4144,-539,-37,43,13438,809,-7,8,13378,830,-1499,2171924,165,147,100,1978
1951,2643,13,4,0,13,24,0,-4,1,1,174,1948.000,3.000,25869,17332,-264,-4138,-540,-47,45,13511,855,-9,8,13390,834,-1415,2192099,165,-17,101,1740
1951,2643,16,1,3,17,27,2,-5,-5,1,174,1948.000,3.000,25869,17332,-264,-4138,-540,-47,45,13511,855,-9,8,13390,834,-1415,2192099,165,-17,101,1740
1951,2643,28,8,0,32,35,1,6,0,1,174,1948.000,3.000,25869,17332,-264,-4138,-540,-47,45,13511,855,-9,8,13390,834,-1415,2192099,165,-17,101,1740
1951,2643,21,10,-2,23,29,0,3,-1,1,174,1948.000,3.000,25869,17332,-264,-4138,-540,-47,45,13511,855,-9,8,13390,834,-1415,2192099,165,-17,101,1740
1957,2650,10,3,-3,5,7,1,-5,0,1,175,1958.000,-1.000,25879,17364,-226,-4168,-533,-33,45,13497,723,-8,8,13393,831,-1425,2199636,165,-61,61,1770
1957,2650,16,1,0,17,25,1,-5,-2,1,175,1958.000,-1.000,25879,17364,-226,-4168,-533,-33,45,13497,723,-8,8,13393,831,-1425,2199636,165,-61,61,1770
1965,2657,29,12,1,30,29,-2,4,1,1,176,1968.000,-3.000,25889,17320,-236,-4154,-533,-37,45,13461,849,-7,8,13396,828,-1429,2207050,165,-101,32,1778
1965,2657,21,8,-1,22,27,-2,-1,1,1,176,1968.000,-3.000,25889,17320,-236,-4154,-533,-37,45,13461,849,-7,8,13396,828,-1429,2207050,165,-101,32,1778
1981,2673,9,4,2,6,6,-1,-7,-1,1,177,1978.000,3.000,25899,17358,-272,-4100,-544,-45,45,13337,867,-6,8,13393,830,-1437,2214549,165,-56,56,1801
1981,2673,16,1,-4,17,27,-1,-5,-4,1,177,1978.000,3.000,25899,17358,-272,-4100,-544,-45,45,13337,867,-6,8,13393,830,-1437,2214549,165,-56,56,1801
1981,2673,29,8,-2,26,33,-2,3,0,1,177,1978.000,3.000,25899,17358,-272,-4100,-544,-45,45,13337,867,-6,8,13393,830,-1437,2214549,165,-56,56,1801
1981,2673,21,8,0,23,32,0,4,5,1,177,1978.000,3.000,25899,17358,-272,-4100,-544,-45,45,13337,867,-6,8,13393,830,-1437,2214549,165,-56,56,1801
2003,2696,3,2,-6,1,5,-1,-6,1,1,179,1998.000,5.000,25919,17356,-300,-4174,-542,-51,46,13527,968,-10,8,13400,836,-1371,2229654,165,-127,78,1599
2003,2696,16,1,3,17,25,1,-5,-3,1,179,1998.000,5.000,25919,17356,-300,-4174,-542,-51,46,13527,968,-10,8,13400,836,-1371,2229654,165,-127,78,1599
2004,2696,28,11,-2,33,29,-3,5,1,1,180,2008.000,-4.000,25929,17350,-246,-4120,-540,-42,46,13443,880,-9,8,13398,834,-1391,2237473,165,-109,71,1653
2004,2696,22,10,-2,22,28,1,5,0,1,180,2008.000,-4.000,25929,17350,-246,-4120,-540,-42,46,13443,880,-9,8,13398,834,-1391,2237473,165,-109,71,1653
2017,2710,6,2,1,5,-6,3,-3,-2,1,181,2018.000,-1.000,25940,17384,-280,-4102,-533,-46,49,13328,893,-6,8,13395,837,-1391,2245354,167,-61,94,1642
2017,2710,16,2,0,17,26,1,-4,-1,1,181,2018.000,-1.000,25940,17384,-280,-4102,-533,-46,49,13328,893,-6,8,13395,837,-1391,2245354,167,-61,94,1642
2018,2710,30,12,0,27,29,-2,2,-1,1,181,2018.000,0.000,25940,17384,-280,-4102,-533,-46,49,13328,893,-6,8,13395,837,-1391,2245354,167,-61,94,1642
2018,2710,22,9,-3,22,30,0,5,2,1,181,2018.000,0.000,25940,17384,-280,-4102,-533,-46,49,13328,893,-6,8,13395,837,-1391,2245354,167,-61,94,1642
2040,2733,-3,4,5,-5,3,1,-7,1,1,183,2038.000,2.000,25960,17402,-308,-4084,-547,-37,42,13140,1019,-4,8,13386,843,-1372,2261276,167,43,165,1565
2040,2733,16,2,-9,17,28,1,-4,0,1,183,2038.000,2.000,25960,17402,-308,-4084,-547,-37,42,13140,1019,-4,8,13386,843,-1372,2261276,167,43,165,1565
2041,2733,31,8,2,33,29,-1,4,3,1,183,2038.000,3.000,25960,17402,-308,-4084,-547,-37,42,13140,1019,-4,8,13386,843,-1372,2261276,167,43,165,1565
2041,2733,21,9,2,21,26,-3,5,-2,1,183,2038.000,3.000,25960,17402,-308,-4084,-547,-37,42,13140,1019,-4,8,13386,843,-1372,2261276,167,43,165,1565
2063,2755,1,4,3,2,-20,1,-5,-2,1,185,2058.000,5.000,25980,17368,-278,-4138,-545,-41,43,13290,903,-7,8,13379,848,-1365,2277452,165,119,214,1531
2063,2755,16,2,2,17,24,-1,-3,-4,1,185,2058.000,5.000,25980,17368,-278,-4138,-545,-41,43,13290,903,-7,8,13379,848,-1365,2277452,165,119,214,1531
2064,2756,28,10,-1,28,27,0,5,-1,1,186,2068.000,-4.000,25990,17344,-242,-4108,-549,-48,41,13319,798,-8,8,13378,845,-1378,2285579,165,141,185,1525
2064,2756,21,12,-2,21,30,-2,5,1,1,186,2068.000,-4.000,25990,17344,-242,-4108,-549,-48,41,13319,798,-8,8,13378,845,-1378,2285579,165,141,185,1525
2077,2769,-3,3,1,-4,-3,-1,-5,-2,1,187,2078.000,-1.000,26000,17366,-230,-4064,-532,-43,42,13223,759,-6,8,13371,841,-1400,2293836,165,219,138,1504
2077,2769,16,2,3,17,24,-1,-3,-1,1,187,2078.000,-1.000,26000,17366,-230,-4064,-532,-43,42,13223,759,-6,8,13371,841,-1400,2293836,165,219,138,1504
2102,2795,27,9,4,35,28,0,4,-1,1,189,2099.000,3.000,26020,17346,-228,-4116,-543,-43,42,13364,701,-8,8,13369,836,-1415,2310628,165,234,72,1468
2102,2795,20,8,-1,21,27,-1,3,-1,1,189,2099.000,3.000,26020,17346,-228,-4116,-543,-43,42,13364,701,-8,8,13369,836,-1415,2310628,165,234,72,1468
2103,2795,0,1,-2,1,-6,0,-5,0,1,189,2099.000,4.000,26020,17346,-228,-4116,-543,-43,42,13364,701,-8,8,13369,836,-1415,2310628,165,234,72,1468
2103,2795,16,2,-2,17,22,1,-5,3,1,189,2099.000,4.000,26020,17346,-228,-4116,-543,-43,42,13364,701,-8,8,13369,836,-1415,2310628,165,234,72,1468
2104,2796,28,7,1,27,33,-1,3,0,1,189,2099.000,5.000,26020,17346,-228,-4116,-543,-43,42,13364,701,-8,8,13369,836,-1415,2310628,165,234,72,1468
2104,2796,20,9,0,21,28,1,6,0,1,189,2099.000,5.000,26020,17346,-228,-4116,-543,-43,42,13364,701,-8,8,13369,836,-1415,2310628,165,234,72,1468
2122,2815,-5,-2,-8,-1,4,-1,-8,0,1,191,2118.000,4.000,26040,17360,-236,-4120,-541,-44,37,13326,716,-8,8,13369,831,-1427,2327397,169,240,7,1432
2122,2815,16,2,1,17,24,0,-3,-3,1,191,2118.000,4.000,26040,17360,-236,-4120,-541,-44,37,13326,716,-8,8,13369,831,-1427,2327397,169,240,7,1432
2130,2822,30,7,-8,30,29,0,6,0,1,192,2128.000,2.000,26050,17350,-240,-4072,-541,-45,39,13243,754,-7,8,13364,828,-1454,2335740,165,300,-4,1477
2130,2822,20,5,-1,20,27,0,5,-1,1,192,2128.000,2.000,26050,17350,-240,-4072,-541,-45,39,13243,754,-7,8,13364,828,-1454,2335740,165,300,-4,1477
2137,2829,1,2,9,0,6,1,-7,-1,1,193,2138.000,-1.000,26060,17362,-258,-4100,-537,-46,45,13289,833,-7,8,13361,828,-1466,2343986,165,328,3,1512
2137,2829,16,3,1,18,24,1,-2,-2,1,193,2138.000,-1.000,26060,17362,-258,-4100,-537,-46,45,13289,833,-7,8,13361,828,-1466,2343986,165,328,3,1512
2152,2844,27,9,-3,26,32,-2,4,2,1,194,2148.000,4.000,26070,17344,-296,-4186,-539,-35,43,13369,866,-8,8,13368,832,-1436,2352073,165,254,43,1490
2152,2844,20,12,-1,20,26,-2,6,2,1,194,2148.000,4.000,26070,17344,-296,-4186,-539,-35,43,13369,866,-8,8,13368,832,-1436,2352073,165,254,43,1490
2161,2853,-7,-3,-2,3,9,2,-8,0,1,195,2158.000,3.000,26080,17332,-288,-4170,-542,-44,46,13449,896,-10,8,13373,835,-1413,2360619,165,196,74,1473
2161,2853,15,2,4,18,24,0,-4,-8,1,195,2158.000,3.000,26080,17332,-288,-4170,-542,-44,46,13449,896,-10,8,13373,835,-1413,2360619,165,196,74,1473
2161,2853,29,10,0,29,25,-1,5,-2,1,195,2158.000,3.000,26080,17332,-288,-4170,-542,-44,46,13449,896,-10,8,13373,835,-1413,2360619,165,196,74,1473
2161,2853,19,6,-1,21,26,-6,2,1,1,195,2158.000,3.000,26080,17332,-288,-4170,-542,-44,46,13449,896,-10,8,13373,835,-1413,2360619,165,196,74,1473
2183,2876,0,-2,0,2,5,-1,-5,-1,1,197,2179.000,4.000,26100,17342,-320,-4146,-539,-38,42,13454,1066,-10,7,13376,850,-1363,2378127,165,159,260,1515
2183,2876,16,2,-2,18,25,-1,-2,-2,1,197,2179.000,4.000,26100,17342,-320,-4146,-539,-38,42,13454,1066,-10,7,13376,850,-1363,2378127,165,159,260,1515
2184,2876,27,8,1,27,29,-3,6,1,1,197,2179.000,5.000,26100,17342,-320,-4146,-539,-38,42,13454,1066,-10,7,13376,850,-1363,2378127,165,159,260,1515
2184,2876,19,10,-3,21,28,0,6,0,1,197,2179.000,5.000,26100,17342,-320,-4146,-539,-38,42,13454,1066,-10,7,13376,850,-1363,2378127,165,159,260,1515
2197,2889,-2,-2,0,-1,13,2,-11,0,1,199,2199.000,-2.000,26121,17360,-278,-4092,-541,-42,49,13322,979,-9,7,13373,858,-1328,2395114,165,185,326,1434
2197,2889,16,2,4,18,22,-1,-2,-2,1,199,2199.000,-2.000,26121,17360,-278,-4092,-541,-42,49,13322,979,-9,7,13373,858,-1328,2395114,165,185,326,1434
2205,2897,28,9,-2,25,30,-1,4,1,1,200,2209.000,-4.000,26131,17346,-262,-4142,-547,-44,44,13374,912,-11,7,13375,857,-1336,2403090,165,166,330,1476
2205,2897,18,7,-6,21,27,0,4,4,1,200,2209.000,-4.000,26131,17346,-262,-4142,-547,-44,44,13374,912,-11,7,13375,857,-1336,2403090,165,166,330,1476
2220,2912,0,-4,-3,3,8,2,-7,-1,1,201,2220.000,0.000,26141,17372,-288,-4134,-541,-40,44,13432,974,-12,7,13376,859,-1330,2411380,165,163,353,1480
2220,2912,16,2,2,19,29,-1,-2,-2,1,201,2220.000,0.000,26141,17372,-288,-4134,-541,-40,44,13432,974,-12,7,13376,859,-1330,2411380,165,163,353,1480
2221,2913,26,10,0,25,30,1,4,0,1,201,2220.000,1.000,26141,17372,-288,-4134,-541,-40,44,13432,974,-12,7,13376,859,-1330,2411380,165,163,353,1480
2221,2913,19,8,-3,21,30,0,4,0,1,201,2220.000,1.000,26141,17372,-288,-4134,-541,-40,44,13432,974,-12,7,13376,859,-1330,2411380,165,163,353,1480
2243,2935,2,-4,-1,0,4,2,-5,-1,1,203,2240.000,3.000,26162,17334,-254,-4126,-536,-46,48,13374,872,-11,7,13376,862,-1327,2427607,166,159,373,1489
2243,2935,16,2,6,18,30,-2,-3,-4,1,203,2240.000,3.000,26162,17334,-254,-4126,-536,-46,48,13374,872,-11,7,13376,862,-1327,2427607,166,159,373,1489
2244,2936,26,9,-1,29,28,-3,1,1,1,203,2240.000,4.000,26162,17334,-254,-4126,-536,-46,48,13374,872,-11,7,13376,862,-1327,2427607,166,159,373,1489
2244,2936,19,9,-1,22,28,-2,6,1,1,203,2240.000,4.000,26162,17334,-254,-4126,-536,-46,48,13374,872,-11,7,13376,862,-1327,2427607,166,159,373,1489
2257,2949,3,-4,2,-5,17,4,-4,-1,1,205,2260.000,-3.000,26182,17346,-270,-4070,-544,-42,45,13260,837,-10,7,13370,861,-1316,2444248,165,221,332,1343
2257,2949,16,2,-8,18,30,-1,0,-3,1,205,2260.000,-3.000,26182,17346,-270,-4070,-544,-42,45,13260,837,-10,7,13370,861,-1316,2444248,165,221,332,1343
2265,2957,23,8,7,27,26,0,7,-1,1,205,2260.000,5.000,26182,17346,-270,-4070,-544,-42,45,13260,837,-10,7,13370,861,-1316,2444248,165,221,332,1343
2265,2957,19,8,-6,21,26,-2,6,0,1,205,2260.000,5.000,26182,17346,-270,-4070,-544,-42,45,13260,837,-10,7,13370,861,-1316,2444248,165,221,332,1343
2280,2972,-2,-4,2,1,16,1,-4,0,1,207,2281.000,-1.000,26202,17340,-234,-4098,-541,-42,42,13252,695,-10,7,13368,851,-1338,2460963,165,245,206,1249
2280,2972,17,2,0,19,37,1,1,0,1,207,2281.000,-1.000,26202,17340,-234,-4098,-541,-42,42,13252,695,-10,7,13368,851,-1338,2460963,165,245,206,1249
2281,2973,26,11,3,29,31,-1,3,1,1,207,2281.000,0.000,26202,17340,-234,-4098,-541,-42,42,13252,695,-10,7,13368,851,-1338,2460963,165,245,206,1249
2281,2973,19,8,-2,20,30,-1,4,0,1,207,2281.000,0.000,26202,17340,-234,-4098,-541,-42,42,13252,695,-10,7,13368,851,-1338,2460963,165,245,206,1249
2303,2996,0,-5,-3,-3,12,2,-8,-2,1,209,2301.000,2.000,26223,17374,-234,-4146,-544,-49,42,13405,749,-13,7,13368,845,-1349,2478734,166,239,126,1188
2303,2996,17,3,-6,18,33,1,1,-1,1,209,2301.000,2.000,26223,17374,-234,-4146,-544,-49,42,13405,749,-13,7,13368,845,-1349,2478734,166,239,126,1188
2305,2997,28,7,-1,29,30,-1,4,-1,1,209,2301.000,4.000,26223,17374,-234,-4146,-544,-49,42,13405,749,-13,7,13368,845,-1349,2478734,166,239,126,1188
2305,2997,21,9,0,22,30,-4,5,0,1,209,2301.000,4.000,26223,17374,-234,-4146,-544,-49,42,13405,749,-13,7,13368,845,-1349,2478734,166,239,126,1188
2317,3008,2,-5,-4,-5,13,4,-9,-2,1,211,2321.000,-4.000,26243,17372,-226,-4098,-549,-43,43,13354,695,-14,7,13367,837,-1374,2496952,165,253,37,1152
2317,3008,17,2,4,18,36,-1,1,-2,1,211,2321.000,-4.000,26243,17372,-226,-4098,-549,-43,43,13354,695,-14,7,13367,837,-1374,2496952,165,253,37,1152
2325,3017,29,13,3,29,29,1,6,2,1,211,2321.000,4.000,26243,17372,-226,-4098,-549,-43,43,13354,695,-14,7,13367,837,-1374,2496952,165,253,37,1152
2325,3017,20,8,-2,22,32,-2,8,-1,1,211,2321.000,4.000,26243,17372,-226,-4098,-549,-43,43,13354,695,-14,7,13367,837,-1374,2496952,165,253,37,1152
2348,3040,-1,-7,-7,-3,14,-2,-8,-2,1,214,2352.000,-4.000,26273,17370,-240,-4214,-537,-46,40,13557,735,-16,7,13384,824,-1315,2525077,165,85,-170,777
2348,3040,17,2,4,18,33,1,0,-3,1,214,2352.000,-4.000,26273,17370,-240,-4214,-537,-46,40,13557,735,-16,7,13384,824,-1315,2525077,165,85,-170,777
2349,3040,27,10,2,27,30,-1,2,-2,1,214,2352.000,-3.000,26273,17370,-240,-4214,-537,-46,40,13557,735,-16,7,13384,824,-1315,2525077,165,85,-170,777
2349,3040,20,7,-2,21,32,-1,7,-1,1,214,2352.000,-3.000,26273,17370,-240,-4214,-537,-46,40,13557,735,-16,7,13384,824,-1315,2525077,165,85,-170,777
2363,3055,-6,-6,-1,-7,4,0,-7,-1,1,215,2362.000,1.000,26283,17378,-212,-4150,-538,-47,44,13481,701,-15,7,13386,820,-1333,2533460,165,72,-209,804
2363,3055,17,2,5,18,30,0,2,-3,1,215,2362.000,1.000,26283,17378,-212,-4150,-538,-47,44,13481,701,-15,7,13386,820,-1333,2533460,165,72,-209,804
2364,3056,24,10,1,32,28,-2,4,1,1,215,2362.000,2.000,26283,17378,-212,-4150,-538,-47,44,13481,701,-15,7,13386,820,-1333,2533460,165,72,-209,804
2364,3056,20,10,3,22,31,-2,5,3,1,215,2362.000,2.000,26283,17378,-212,-4150,-538,-47,44,13481,701,-15,7,13386,820,-1333,2533460,165,72,-209,804
2377,3069,-6,-6,-1,-8,9,-1,-8,-1,1,216,2372.000,5.000,26294,17344,-246,-4170,-538,-40,44,13514,780,-15,7,13390,819,-1308,2542296,166,30,-244,695
2377,3069,17,2,-2,18,30,-2,3,-3,1,216,2372.000,5.000,26294,17344,-246,-4170,-538,-40,44,13514,780,-15,7,13390,819,-1308,2542296,166,30,-244,695
2385,3077,25,13,-5,24,27,-2,6,0,1,217,2382.000,3.000,26304,17354,-236,-4180,-540,-43,41,13580,726,-16,7,13395,816,-1287,2550575,166,-17,-287,593
2385,3077,20,9,0,21,32,-1,4,0,1,217,2382.000,3.000,26304,17354,-236,-4180,-540,-43,41,13580,726,-16,7,13395,816,-1287,2550575,166,-17,-287,593
2400,3092,-13,-7,-2,-10,15,4,-10,-1,1,219,2402.000,-2.000,26324,17320,-234,-4140,-539,-39,47,13441,752,-14,7,13396,818,-1272,2565168,165,-27,-289,538
2400,3092,16,3,4,17,28,2,1,-2,1,219,2402.000,-2.000,26324,17320,-234,-4140,-539,-39,47,13441,752,-14,7,13396,818,-1272,2565168,165,-27,-289,538
2408,3100,29,10,1,27,27,-2,6,2,1,220,2413.000,-5.000,26334,17332,-256,-4118,-531,-43,47,13379,810,-13,7,13395,818,-1278,2572544,165,-17,-282,563
2408,3100,21,11,6,22,29,-4,7,4,1,220,2413.000,-5.000,26334,17332,-256,-4118,-531,-43,47,13379,810,-13,7,13395,818,-1278,2572544,165,-17,-282,563
2422,3114,-5,-10,-3,-4,15,2,-8,-4,1,221,2423.000,-1.000,26344,17328,-260,-4120,-538,-39,39,13363,895,-13,7,13394,818,-1278,2580320,165,-11,-275,567
2422,3114,16,2,-8,17,29,-1,1,0,1,221,2423.000,-1.000,26344,17328,-260,-4120,-538,-39,39,13363,895,-13,7,13394,818,-1278,2580320,165,-11,-275,567
2430,3123,27,12,-1,28,26,0,4,3,1,222,2433.000,-3.000,26355,17398,-300,-4178,-539,-41,41,13439,931,-14,7,13398,822,-1222,2588388,166,-44,-278,379
2430,3123,20,9,-3,21,32,0,7,1,1,222,2433.000,-3.000,26355,17398,-300,-4178,-539,-41,41,13439,931,-14,7,13398,822,-1222,2588388,166,-44,-278,379
2445,3137,-14,-9,0,-3,18,2,-8,-1,1,223,2443.000,2.000,26365,17366,-292,-4074,-542,-46,44,13356,933,-13,7,13392,825,-1226,2594046,165,13,-237,406
2445,3137,15,1,2,17,29,3,2,-3,1,223,2443.000,2.000,26365,17366,-292,-4074,-542,-46,44,13356,933,-13,7,13392,825,-1226,2594046,165,13,-237,406
2447,3140,27,9,0,28,26,-2,5,2,1,223,2443.000,4.000,26365,17366,-292,-4074,-542,-46,44,13356,933,-13,7,13392,825,-1226,2594046,165,13,-237,406
2447,3140,20,11,0,22,28,-1,7,0,1,223,2443.000,4.000,26365,17366,-292,-4074,-542,-46,44,13356,933,-13,7,13392,825,-1226,2594046,165,13,-237,406
2459,3151,-8,-7,0,0,18,2,-8,-1,1,225,2463.000,-4.000,26385,17352,-302,-4094,-539,-41,52,13282,1032,-12,7,13380,835,-1227,2606656,165,126,-139,460
2459,3151,16,3,-2,23,25,-3,0,-3,1,225,2463.000,-4.000,26385,17352,-302,-4094,-539,-41,52,13282,1032,-12,7,13380,835,-1227,2606656,165,126,-139,460
2485,3178,24,8,4,24,24,1,4,2,1,227,2484.000,1.000,26405,17378,-314,-4074,-542,-48,44,13178,1025,-11,7,13371,845,-1212,2619916,165,214,-45,464
2485,3178,19,11,-3,22,29,-2,3,2,1,227,2484.000,1.000,26405,17378,-314,-4074,-542,-48,44,13178,1025,-11,7,13371,845,-1212,2619916,165,214,-45,464
2486,3178,-8,-10,0,2,19,2,-8,-1,1,227,2484.000,2.000,26405,17378,-314,-4074,-542,-48,44,13178,1025,-11,7,13371,845,-1212,2619916,165,214,-45,464
2486,3178,15,2,3,21,26,-2,1,-4,1,227,2484.000,2.000,26405,17378,-314,-4074,-542,-48,44,13178,1025,-11,7,13371,845,-1212,2619916,165,214,-45,464
2489,3181,27,9,-6,26,24,-2,4,-1,1,227,2484.000,5.000,26405,17378,-314,-4074,-542,-48,44,13178,1025,-11,7,13371,845,-1212,2619916,165,214,-45,464
2489,3181,19,8,0,22,29,-1,8,1,1,227,2484.000,5.000,26405,17378,-314,-4074,-542,-48,44,13178,1025,-11,7,13371,845,-1212,2619916,165,214,-45,464
2506,3198,-4,-11,-1,3,21,-1,-10,-2,1,229,2504.000,2.000,26426,17314,-288,-4178,-543,-39,45,13330,965,-14,7,13374,851,-1220,2632473,166,176,40,620
2506,3198,16,2,3,21,24,-1,0,0,1,229,2504.000,2.000,26426,17314,-288,-4178,-543,-39,45,13330,965,-14,7,13374,851,-1220,2632473,166,176,40,620
2507,3199,26,10,3,25,24,0,4,-3,1,229,2504.000,3.000,26426,17314,-288,-4178,-543,-39,45,13330,965,-14,7,13374,851,-1220,2632473,166,176,40,620
2507,3199,20,9,3,21,29,1,8,3,1,229,2504.000,3.000,26426,17314,-288,-4178,-543,-39,45,13330,965,-14,7,13374,851,-1220,2632473,166,176,40,620
2520,3212,-2,-9,0,2,22,-3,-11,0,1,231,2524.000,-4.000,26446,17326,-278,-4216,-538,-44,55,13479,909,-17,7,13385,855,-1244,2646327,166,87,125,864
2520,3212,17,1,-2,23,28,-2,1,-1,1,231,2524.000,-4.000,26446,17326,-278,-4216,-538,-44,55,13479,909,-17,7,13385,855,-1244,2646327,166,87,125,864
2527,3218,27,10,-2,27,26,0,4,1,1,231,2524.000,3.000,26446,17326,-278,-4216,-538,-44,55,13479,909,-17,7,13385,855,-1244,2646327,166,87,125,864
2527,3218,20,8,-1,23,27,-1,7,2,1,231,2524.000,3.000,26446,17326,-278,-4216,-538,-44,55,13479,909,-17,7,13385,855,-1244,2646327,166,87,125,864
2543,3235,1,-11,1,6,22,1,-11,-3,1,233,2544.000,-1.000,26466,17322,-234,-4086,-534,-39,42,13361,799,-15,7,13381,849,-1267,2663191,166,115,74,864
2543,3235,19,2,3,21,39,-3,0,-3,1,233,2544.000,-1.000,26466,17322,-234,-4086,-534,-39,42,13361,799,-15,7,13381,849,-1267,2663191,166,115,74,864
2544,3237,25,9,-6,24,25,1,2,-1,1,233,2544.000,0.000,26466,17322,-234,-4086,-534,-39,42,13361,799,-15,7,13381,849,-1267,2663191,166,115,74,864
2544,3237,20,8,-3,23,31,-1,7,-1,1,233,2544.000,0.000,26466,17322,-234,-4086,-534,-39,42,13361,799,-15,7,13381,849,-1267,2663191,166,115,74,864
2573,3265,0,-11,6,4,22,4,-10,-2,1,236,2574.000,-1.000,26496,17352,-206,-4204,-534,-52,33,13441,741,-15,7,13389,839,-1304,2691514,166,53,0,938
2573,3265,20,1,-5,22,50,0,3,1,1,236,2574.000,-1.000,26496,17352,-206,-4204,-534,-52,33,13441,741,-15,7,13389,839,-1304,2691514,166,53,0,938
2575,3267,25,9,0,26,25,-2,2,2,1,236,2574.000,1.000,26496,17352,-206,-4204,-534,-52,33,13441,741,-15,7,13389,839,-1304,2691514,166,53,0,938
2575,3267,20,7,2,24,31,-3,6,-1,1,236,2574.000,1.000,26496,17352,-206,-4204,-534,-52,33,13441,741,-15,7,13389,839,-1304,2691514,166,53,0,938
2580,3273,4,-11,-12,7,24,2,-11,-2,1,237,2584.000,-4.000,26505,17318,-230,-4226,-540,-39,40,13522,740,-16,7,13399,835,-1305,2701429,165,-32,-20,967
2580,3273,19,1,3,22,42,2,2,-1,1,237,2584.000,-4.000,26505,17318,-230,-4226,-540,-39,40,13522,740,-16,7,13399,835,-1305,2701429,165,-32,-20,967
2594,3286,23,8,-1,26,26,-3,5,0,1,238,2594.000,0.000,26516,17342,-258,-4146,-536,-47,42,13467,804,-15,7,13401,835,-1303,2711589,166,-45,-23,964
2594,3286,20,7,-5,24,29,-1,10,3,1,238,2594.000,0.000,26516,17342,-258,-4146,-536,-47,42,13467,804,-15,7,13401,835,-1303,2711589,166,-45,-23,964
2603,3296,2,-12,2,6,25,-1,-8,-3,1,239,2604.000,-1.000,26526,17352,-242,-4184,-541,-43,43,13547,779,-16,7,13406,833,-1307,2721774,166,-84,-32,989
2603,3296,20,1,5,22,50,-1,2,1,1,239,2604.000,-1.000,26526,17352,-242,-4184,-541,-43,43,13547,779,-16,7,13406,833,-1307,2721774,166,-84,-32,989
2604,3297,25,11,-5,24,27,-2,5,2,1,239,2604.000,0.000,26526,17352,-242,-4184,-541,-43,43,13547,779,-16,7,13406,833,-1307,2721774,166,-84,-32,989
2604,3297,22,6,-6,24,30,-2,7,0,1,239,2604.000,0.000,26526,17352,-242,-4184,-541,-43,43,13547,779,-16,7,13406,833,-1307,2721774,166,-84,-32,989
2625,3317,5,-11,-3,9,24,1,-10,-1,1,241,2624.000,1.000,26546,17362,-266,-4096,-544,-43,44,13392,833,-14,7,13402,835,-1303,2742150,165,-40,-23,954
2625,3317,21,1,9,23,47,-1,5,-3,1,241,2624.000,1.000,26546,17362,-266,-4096,-544,-43,44,13392,833,-14,7,13402,835,-1303,2742150,165,-40,-23,954
2627,3319,23,13,5,24,27,-1,3,0,1,241,2624.000,3.000,26546,17362,-266,-4096,-544,-43,44,13392,833,-14,7,13402,835,-1303,2742150,165,-40,-23,954
2627,3319,22,7,-1,24,30,-2,10,-1,1,241,2624.000,3.000,26546,17362,-266,-4096,-544,-43,44,13392,833,-14,7,13402,835,-1303,2742150,165,-40,-23,954
2640,3332,5,-12,-1,9,24,2,-8,-1,1,243,2644.000,-4.000,26566,17384,-320,-4116,-542,-44,44,13314,908,-14,7,13395,840,-1286,2763009,165,15,5,888
2640,3332,20,3,-2,22,47,-3,4,2,1,243,2644.000,-4.000,26566,17384,-320,-4116,-542,-44,44,13314,908,-14,7,13395,840,-1286,2763009,165,15,5,888
2647,3339,24,11,1,25,27,0,2,0,1,243,2644.000,3.000,26566,17384,-320,-4116,-542,-44,44,13314,908,-14,7,13395,840,-1286,2763009,165,15,5,888
2647,3339,24,8,-2,26,32,-2,8,1,1,243,2644.000,3.000,26566,17384,-320,-4116,-542,-44,44,13314,908,-14,7,13395,840,-1286,2763009,165,15,5,888
2663,3356,8,-12,-4,8,25,1,-12,-5,1,245,2664.000,-1.000,26586,17368,-328,-4150,-541,-45,42,13299,939,-14,7,13393,847,-1251,2782892,166,45,49,797
2663,3356,20,3,-2,20,42,-1,4,-1,1,245,2664.000,-1.000,26586,17368,-328,-4150,-541,-45,42,13299,939,-14,7,13393,847,-1251,2782892,166,45,49,797
2665,3357,23,9,5,26,26,-1,6,0,1,245,2664.000,1.000,26586,17368,-328,-4150,-541,-45,42,13299,939,-14,7,13393,847,-1251,2782892,166,45,49,797
2665,3357,22,7,2,26,29,2,10,2,1,245,2664.000,1.000,26586,17368,-328,-4150,-541,-45,42,13299,939,-14,7,13393,847,-1251,2782892,166,45,49,797
2686,3378,8,-14,0,6,25,1,-10,-2,1,247,2684.000,2.000,26605,17364,-306,-4056,-537,-43,50,13289,982,-14,7,13383,856,-1194,2800497,165,118,55,552
2686,3378,20,3,-3,19,43,-5,6,3,1,247,2684.000,2.000,26605,17364,-306,-4056,-537,-43,50,13289,982,-14,7,13383,856,-1194,2800497,165,118,55,552
2688,3380,24,13,0,25,27,-2,5,1,1,247,2684.000,4.000,26605,17364,-306,-4056,-537,-43,50,13289,982,-14,7,13383,856,-1194,2800497,165,118,55,552
2688,3380,23,9,-3,26,28,-2,7,1,1,247,2684.000,4.000,26605,17364,-306,-4056,-537,-43,50,13289,982,-14,7,13383,856,-1194,2800497,165,118,55,552
2700,3393,7,-12,1,9,27,3,-11,-1,1,249,2704.000,-4.000,26626,17316,-274,-4130,-539,-44,44,13397,929,-17,7,13387,862,-1192,2814096,166,99,128,643
2700,3393,19,3,0,20,48,-3,7,-2,1,249,2704.000,-4.000,26626,17316,-274,-4130,-539,-44,44,13397,929,-17,7,13387,862,-1192,2814096,166,99,128,643
2707,3399,22,8,1,24,23,-4,5,1,1,249,2704.000,3.000,26626,17316,-274,-4130,-539,-44,44,13397,929,-17,7,13387,862,-1192,2814096,166,99,128,643
2707,3399,23,8,3,24,30,0,5,2,1,249,2704.000,3.000,26626,17316,-274,-4130,-539,-44,44,13397,929,-17,7,13387,862,-1192,2814096,166,99,128,643
2723,3416,6,-12,-2,9,25,1,-10,-2,1,251,2724.000,-1.000,26646,17414,-232,-4058,-539,-43,40,13335,819,-16,7,13380,857,-1173,2829094,166,153,42,432
2723,3416,19,4,-4,20,40,1,6,0,1,251,2724.000,-1.000,26646,17414,-232,-4058,-539,-43,40,13335,819,-16,7,13380,857,-1173,2829094,166,153,42,432
2725,3417,22,10,3,23,28,3,7,-1,1,251,2724.000,1.000,26646,17414,-232,-4058,-539,-43,40,13335,819,-16,7,13380,857,-1173,2829094,166,153,42,432
2725,3417,23,9,1,25,27,-1,8,-1,1,251,2724.000,1.000,26646,17414,-232,-4058,-539,-43,40,13335,819,-16,7,13380,857,-1173,2829094,166,153,42,432
2745,3438,8,-12,-7,11,23,3,-10,-3,1,253,2744.000,1.000,26666,17306,-252,-4178,-534,-50,48,13497,802,-18,7,13392,853,-1215,2843230,166,69,53,643
2746,3438,17,4,8,20,41,-4,3,-1,1,253,2744.000,2.000,26666,17306,-252,-4178,-534,-50,48,13497,802,-18,7,13392,853,-1215,2843230,166,69,53,643
2747,3439,22,8,-7,22,26,-3,4,3,1,253,2744.000,3.000,26666,17306,-252,-4178,-534,-50,48,13497,802,-18,7,13392,853,-1215,2843230,166,69,53,643
2747,3439,23,8,0,24,26,-4,7,4,1,253,2744.000,3.000,26666,17306,-252,-4178,-534,-50,48,13497,802,-18,7,13392,853,-1215,2843230,166,69,53,643
2760,3452,4,-12,-6,13,24,0,-9,-2,1,255,2764.000,-4.000,26685,17364,-296,-4116,-544,-42,45,13372,905,-17,7,13391,856,-1200,2861065,169,80,65,593
2760,3452,17,4,1,19,47,-2,5,-5,1,255,2764.000,-4.000,26685,17364,-296,-4116,-544,-42,45,13372,905,-17,7,13391,856,-1200,2861065,169,80,65,593
2766,3459,21,11,2,22,26,0,5,-1,1,255,2764.000,2.000,26685,17364,-296,-4116,-544,-42,45,13372,905,-17,7,13391,856,-1200,2861065,169,80,65,593
2766,3459,23,9,-9,25,25,-5,7,3,1,255,2764.000,2.000,26685,17364,-296,-4116,-544,-42,45,13372,905,-17,7,13391,856,-1200,2861065,169,80,65,593
2782,3474,7,-16,5,14,29,2,-8,-2,1,257,2783.000,-1.000,26705,17354,-250,-4172,-540,-45,41,13505,817,-19,7,13399,855,-1230,2878389,165,25,94,768
2782,3474,18,2,-4,19,39,1,4,0,1,257,2783.000,-1.000,26705,17354,-250,-4172,-540,-45,41,13505,817,-19,7,13399,855,-1230,2878389,165,25,94,768
2791,3483,21,13,3,21,22,-2,5,-1,1,258,2793.000,-2.000,26715,17338,-254,-4116,-535,-51,43,13424,817,-18,7,13398,854,-1235,2888185,165,35,84,765
2791,3483,22,9,-2,23,27,-2,7,-3,1,258,2793.000,-2.000,26715,17338,-254,-4116,-535,-51,43,13424,817,-18,7,13398,854,-1235,2888185,165,35,84,765
2806,3498,8,-14,-1,15,25,0,-10,-1,1,259,2803.000,3.000,26725,17374,-330,-4136,-535,-43,42,13412,900,-17,7,13398,860,-1199,2898278,165,36,110,671
2806,3498,17,3,0,27,37,-2,5,0,1,259,2803.000,3.000,26725,17374,-330,-4136,-535,-43,42,13412,900,-17,7,13398,860,-1199,2898278,165,36,110,671
2807,3499,19,10,-2,21,28,-2,3,0,1,259,2803.000,4.000,26725,17374,-330,-4136,-535,-43,42,13412,900,-17,7,13398,860,-1199,2898278,165,36,110,671
2807,3499,22,8,-4,23,25,2,6,1,1,259,2803.000,4.000,26725,17374,-330,-4136,-535,-43,42,13412,900,-17,7,13398,860,-1199,2898278,165,36,110,671
2820,3511,9,-11,0,16,25,3,-8,-1,1,261,2823.000,-3.000,26745,17364,-278,-4154,-537,-32,45,13449,904,-17,7,13400,862,-1194,2915809,165,20,135,691
2820,3511,17,3,-1,29,26,-5,3,-2,1,261,2823.000,-3.000,26745,17364,-278,-4154,-537,-32,45,13449,904,-17,7,13400,862,-1194,2915809,165,20,135,691
2827,3519,20,8,-1,20,25,-4,6,1,1,261,2823.000,4.000,26745,17364,-278,-4154,-537,-32,45,13449,904,-17,7,13400,862,-1194,2915809,165,20,135,691
2827,3519,22,7,-8,24,24,-1,7,5,1,261,2823.000,4.000,26745,17364,-278,-4154,-537,-32,45,13449,904,-17,7,13400,862,-1194,2915809,165,20,135,691
2843,3535,11,-14,5,17,23,0,-12,-3,1,263,2843.000,0.000,26765,17376,-276,-4108,-536,-39,51,13287,882,-15,7,13397,865,-1171,2933462,165,38,123,580
2843,3535,23,4,0,31,31,-4,6,-1,1,263,2843.000,0.000,26765,17376,-276,-4108,-536,-39,51,13287,882,-15,7,13397,865,-1171,2933462,165,38,123,580
2845,3536,22,11,-5,21,24,-1,4,2,1,263,2843.000,2.000,26765,17376,-276,-4108,-536,-39,51,13287,882,-15,7,13397,865,-1171,2933462,165,38,123,580
2845,3536,21,7,-1,24,23,-3,4,1,1,263,2843.000,2.000,26765,17376,-276,-4108,-536,-39,51,13287,882,-15,7,13397,865,-1171,2933462,165,38,123,580
2866,3557,13,-12,-7,18,26,1,-9,-2,1,265,2863.000,3.000,26785,17358,-252,-4098,-539,-40,42,13310,804,-15,7,13387,860,-1149,2948439,165,111,29,342
2866,3557,24,3,6,31,38,-3,4,1,1,265,2863.000,3.000,26785,17358,-252,-4098,-539,-40,42,13310,804,-15,7,13387,860,-1149,2948439,165,111,29,342
2867,3559,19,7,4,21,25,1,4,-1,1,265,2863.000,4.000,26785,17358,-252,-4098,-539,-40,42,13310,804,-15,7,13387,860,-1149,2948439,165,111,29,342
2867,3559,22,7,1,24,24,0,6,3,1,265,2863.000,4.000,26785,17358,-252,-4098,-539,-40,42,13310,804,-15,7,13387,860,-1149,2948439,165,111,29,342
2880,3572,14,-9,3,17,23,0,-9,-2,1,267,2883.000,-3.000,26805,17336,-228,-4108,-544,-41,47,13315,805,-15,7,13382,858,-1135,2961932,165,143,-12,218
2880,3572,28,3,1,32,45,-2,3,-1,1,267,2883.000,-3.000,26805,17336,-228,-4108,-544,-41,47,13315,805,-15,7,13382,858,-1135,2961932,165,143,-12,218
2886,3579,21,9,-4,21,24,-2,4,1,1,267,2883.000,3.000,26805,17336,-228,-4108,-544,-41,47,13315,805,-15,7,13382,858,-1135,2961932,165,143,-12,218
2887,3579,22,6,5,24,26,-2,4,1,1,267,2883.000,4.000,26805,17336,-228,-4108,-544,-41,47,13315,805,-15,7,13382,858,-1135,2961932,165,143,-12,218
2910,3602,14,-10,2,20,24,3,-10,-1,1,270,2913.000,-3.000,26835,17316,-290,-4130,-535,-39,42,13388,920,-17,7,13386,863,-1139,2983530,165,114,55,328
2910,3602,25,2,-4,33,50,0,8,0,1,270,2913.000,-3.000,26835,17316,-290,-4130,-535,-39,42,13388,920,-17,7,13386,863,-1139,2983530,165,114,55,328
2912,3604,20,9,0,20,29,-2,5,1,1,270,2913.000,-1.000,26835,17316,-290,-4130,-535,-39,42,13388,920,-17,7,13386,863,-1139,2983530,165,114,55,328
2912,3604,21,6,-1,23,25,-3,5,1,1,270,2913.000,-1.000,26835,17316,-290,-4130,-535,-39,42,13388,920,-17,7,13386,863,-1139,2983530,165,114,55,328
2925,3618,16,-10,0,19,23,-1,-12,-2,1,271,2923.000,2.000,26845,17360,-226,-4164,-542,-41,46,13427,845,-18,7,13389,860,-1159,2991036,165,93,39,391
2925,3618,27,3,-1,33,48,1,4,1,1,271,2923.000,2.000,26845,17360,-226,-4164,-542,-41,46,13427,845,-18,7,13389,860,-1159,2991036,165,93,39,391
2927,3619,19,10,1,21,26,-2,5,0,1,271,2923.000,4.000,26845,17360,-226,-4164,-542,-41,46,13427,845,-18,7,13389,860,-1159,2991036,165,93,39,391
2927,3619,22,6,-1,25,24,-1,8,1,1,271,2923.000,4.000,26845,17360,-226,-4164,-542,-41,46,13427,845,-18,7,13389,860,-1159,2991036,165,93,39,391
2939,3632,16,-8,1,19,23,0,-9,-1,1,273,2943.000,-4.000,26865,17352,-212,-4140,-545,-32,42,13403,710,-18,7,13389,853,-1182,3008864,165,85,-1,425
2939,3632,28,3,3,31,47,-3,7,3,1,273,2943.000,-4.000,26865,17352,-212,-4140,-545,-32,42,13403,710,-18,7,13389,853,-1182,3008864,165,85,-1,425
2948,3640,19,11,-4,22,30,2,1,1,1,273,2943.000,5.000,26865,17352,-212,-4140,-545,-32,42,13403,710,-18,7,13389,853,-1182,3008864,165,85,-1,425
2948,3640,21,6,-3,23,20,-3,6,0,1,273,2943.000,5.000,26865,17352,-212,-4140,-545,-32,42,13403,710,-18,7,13389,853,-1182,3008864,165,85,-1,425
2963,3655,17,-14,-2,19,24,0,-8,-4,1,275,2963.000,0.000,26885,17350,-236,-4182,-543,-44,41,13522,764,-20,7,13396,849,-1195,3029303,165,37,-19,480
2963,3655,29,6,1,33,47,-1,5,0,1,275,2963.000,0.000,26885,17350,-236,-4182,-543,-44,41,13522,764,-20,7,13396,849,-1195,3029303,165,37,-19,480
2971,3662,19,9,0,21,27,-4,5,0,1,276,2973.000,-2.000,26895,17330,-308,-4124,-538,-41,38,13479,836,-19,7,13395,853,-1171,3040072,165,38,-3,414
2971,3662,22,7,3,24,20,-1,3,1,1,276,2973.000,-2.000,26895,17330,-308,-4124,-538,-41,38,13479,836,-19,7,13395,853,-1171,3040072,165,38,-3,414
3001,3694,18,-10,1,21,24,-1,-9,-4,1,279,3003.000,-2.000,26924,17360,-294,-4038,-533,-38,44,13347,965,-16,7,13383,863,-1094,3066498,165,117,3,103
3001,3694,31,7,-1,30,46,1,9,0,1,279,3003.000,-2.000,26924,17360,-294,-4038,-533,-38,44,13347,965,-16,7,13383,863,-1094,3066498,165,117,3,103
3003,3695,19,7,-4,21,30,-4,4,2,1,279,3003.000,0.000,26924,17360,-294,-4038,-533,-38,44,13347,965,-16,7,13383,863,-1094,3066498,165,117,3,103
3003,3695,22,6,-3,23,20,0,6,2,1,279,3003.000,0.000,26924,17360,-294,-4038,-533,-38,44,13347,965,-16,7,13383,863,-1094,3066498,165,117,3,103
3003,3696,17,-11,3,19,23,1,-9,-2,1,279,3003.000,0.000,26924,17360,-294,-4038,-533,-38,44,13347,965,-16,7,13383,863,-1094,3066498,165,117,3,103
3004,3696,31,7,-3,32,42,-3,7,-1,1,279,3003.000,1.000,26924,17360,-294,-4038,-533,-38,44,13347,965,-16,7,13383,863,-1094,3066498,165,117,3,103
3008,3700,20,10,-1,21,29,2,5,2,1,280,3012.000,-4.000,26934,17372,-298,-4086,-528,-37,39,13265,959,-14,7,13379,866,-1074,3072096,165,147,2,14
3008,3700,22,6,1,23,16,-3,2,1,1,280,3012.000,-4.000,26934,17372,-298,-4086,-528,-37,39,13265,959,-14,7,13379,866,-1074,3072096,165,147,2,14
3038,3730,18,-12,4,20,21,2,-8,-4,1,282,3033.000,5.000,26954,17326,-228,-4104,-540,-40,46,13295,798,-14,7,13373,861,-1042,3079100,165,179,-95,-232
3038,3730,28,4,-3,29,44,-1,6,-1,1,282,3033.000,5.000,26954,17326,-228,-4104,-540,-40,46,13295,798,-14,7,13373,861,-1042,3079100,165,179,-95,-232
3040,3732,20,9,5,21,29,0,3,0,1,283,3043.000,-3.000,26965,17362,-264,-4202,-532,-44,55,13378,812,-15,7,13380,862,-1058,3081636,166,134,-71,-114
3040,3732,21,6,0,22,24,-3,3,0,1,283,3043.000,-3.000,26965,17362,-264,-4202,-532,-44,55,13378,812,-15,7,13380,862,-1058,3081636,166,134,-71,-114
3045,3737,17,-14,-9,19,21,3,-9,-1,1,283,3043.000,2.000,26965,17362,-264,-4202,-532,-44,55,13378,812,-15,7,13380,862,-1058,3081636,166,134,-71,-114
3045,3737,30,7,8,31,45,0,5,-1,1,283,3043.000,2.000,26965,17362,-264,-4202,-532,-44,55,13378,812,-15,7,13380,862,-1058,3081636,166,134,-71,-114
3047,3739,19,6,-5,20,31,1,2,0,1,283,3043.000,4.000,26965,17362,-264,-4202,-532,-44,55,13378,812,-15,7,13380,862,-1058,3081636,166,134,-71,-114
3047,3739,22,7,2,22,18,0,2,2,1,283,3043.000,4.000,26965,17362,-264,-4202,-532,-44,55,13378,812,-15,7,13380,862,-1058,3081636,166,134,-71,-114
3059,3752,18,-7,3,20,21,3,-10,-4,1,285,3063.000,-4.000,26985,17346,-240,-4080,-540,-41,44,13365,832,-15,7,13376,858,-1054,3091168,165,159,-116,-199
3059,3752,28,4,-3,28,38,-3,4,0,1,285,3063.000,-4.000,26985,17346,-240,-4080,-540,-41,44,13365,832,-15,7,13376,858,-1054,3091168,165,159,-116,-199
3068,3761,19,10,1,21,26,-3,7,1,1,285,3063.000,5.000,26985,17346,-240,-4080,-540,-41,44,13365,832,-15,7,13376,858,-1054,3091168,165,159,-116,-199
3068,3761,21,5,0,21,11,0,4,1,1,285,3063.000,5.000,26985,17346,-240,-4080,-540,-41,44,13365,832,-15,7,13376,858,-1054,3091168,165,159,-116,-199
3083,3775,17,-9,-2,19,23,1,-9,1,1,287,3084.000,-1.000,27005,17340,-236,-4162,-538,-48,39,13511,755,-16,7,13383,851,-1050,3101285,165,116,-172,-244
3083,3775,27,7,-1,28,34,-2,7,0,1,287,3084.000,-1.000,27005,17340,-236,-4162,-538,-48,39,13511,755,-16,7,13383,851,-1050,3101285,165,116,-172,-244
3090,3783,19,11,-3,19,27,-3,6,-1,1,288,3094.000,-4.000,27016,17402,-238,-4176,-538,-44,45,13433,785,-15,7,13386,849,-1049,3107065,165,95,-194,-258
3091,3783,21,6,-1,21,17,0,5,1,1,288,3094.000,-3.000,27016,17402,-238,-4176,-538,-44,45,13433,785,-15,7,13386,849,-1049,3107065,165,95,-194,-258
3105,3798,17,-11,2,19,21,1,-9,-5,1,289,3104.000,1.000,27026,17382,-246,-4164,-539,-41,47,13516,791,-16,7,13388,847,-1047,3112818,165,78,-209,-269
3105,3798,27,6,0,30,40,3,7,2,1,289,3104.000,1.000,27026,17382,-246,-4164,-539,-41,47,13516,791,-16,7,13388,847,-1047,3112818,165,78,-209,-269
3107,3799,19,9,-1,20,29,-2,2,2,1,289,3104.000,3.000,27026,17382,-246,-4164,-539,-41,47,13516,791,-16,7,13388,847,-1047,3112818,165,78,-209,-269
3107,3799,20,7,-8,20,24,-1,5,3,1,289,3104.000,3.000,27026,17382,-246,-4164,-539,-41,47,13516,791,-16,7,13388,847,-1047,3112818,165,78,-209,-269
3128,3820,17,-10,3,19,20,1,-12,-3,1,291,3125.000,3.000,27046,17354,-278,-4158,-543,-48,39,13462,857,-16,7,13388,845,-1055,3126361,165,83,-217,-256
3128,3820,27,5,-2,34,40,-2,7,2,1,291,3125.000,3.000,27046,17354,-278,-4158,-543,-48,39,13462,857,-16,7,13388,845,-1055,3126361,165,83,-217,-256
3129,3822,18,10,-1,20,29,0,4,1,1,291,3125.000,4.000,27046,17354,-278,-4158,-543,-48,39,13462,857,-16,7,13388,845,-1055,3126361,165,83,-217,-256
3129,3822,20,6,3,21,14,2,0,1,1,291,3125.000,4.000,27046,17354,-278,-4158,-543,-48,39,13462,857,-16,7,13388,845,-1055,3126361,165,83,-217,-256
3158,3850,17,-10,-1,18,22,-1,-9,-4,1,294,3156.000,2.000,27077,17362,-306,-4172,-533,-37,49,13411,939,-15,7,13387,850,-1052,3150912,165,86,-184,-228
3158,3850,26,7,0,33,35,-5,6,-1,1,294,3156.000,2.000,27077,17362,-306,-4172,-533,-37,49,13411,939,-15,7,13387,850,-1052,3150912,165,86,-184,-228
3160,3852,19,8,-5,22,26,0,4,-1,1,294,3156.000,4.000,27077,17362,-306,-4172,-533,-37,49,13411,939,-15,7,13387,850,-1052,3150912,165,86,-184,-228
3160,3852,19,6,0,20,14,-1,2,0,1,294,3156.000,4.000,27077,17362,-306,-4172,-533,-37,49,13411,939,-15,7,13387,850,-1052,3150912,165,86,-184,-228
3166,3858,17,-11,-3,18,23,3,-10,-2,1,295,3166.000,0.000,27087,17356,-280,-4110,-534,-40,43,13334,905,-13,7,13385,851,-1051,3158490,165,99,-174,-227
3166,3858,28,7,7,38,36,-2,8,-1,1,295,3166.000,0.000,27087,17356,-280,-4110,-534,-40,43,13334,905,-13,7,13385,851,-1051,3158490,165,99,-174,-227
3167,3859,18,8,1,21,28,-2,2,-1,1,295,3166.000,1.000,27087,17356,-280,-4110,-534,-40,43,13334,905,-13,7,13385,851,-1051,3158490,165,99,-174,-227
3167,3859,19,6,-3,20,20,2,1,-1,1,295,3166.000,1.000,27087,17356,-280,-4110,-534,-40,43,13334,905,-13,7,13385,851,-1051,3158490,165,99,-174,-227
3188,3880,17,-9,1,19,21,0,-6,-3,1,297,3186.000,2.000,27108,17376,-278,-4074,-545,-48,41,13226,872,-12,7,13378,851,-1063,3174876,165,152,-166,-213
3188,3880,31,8,-3,34,23,-1,3,0,1,297,3186.000,2.000,27108,17376,-278,-4074,-545,-48,41,13226,872,-12,7,13378,851,-1063,3174876,165,152,-166,-213
3189,3882,19,12,3,21,27,-1,4,0,1,297,3186.000,3.000,27108,17376,-278,-4074,-545,-48,41,13226,872,-12,7,13378,851,-1063,3174876,165,152,-166,-213
3189,3882,19,5,-2,20,20,-1,0,1,1,297,3186.000,3.000,27108,17376,-278,-4074,-545,-48,41,13226,872,-12,7,13378,851,-1063,3174876,165,152,-166,-213
3204,3896,17,-7,-6,19,21,2,-8,-3,1,299,3207.000,-3.000,27128,17348,-260,-4186,-539,-31,48,13393,850,-15,7,13383,851,-1056,3193537,165,113,-172,-216
3204,3896,28,4,5,37,32,-4,4,1,1,299,3207.000,-3.000,27128,17348,-260,-4186,-539,-31,48,13393,850,-15,7,13383,851,-1056,3193537,165,113,-172,-216
3205,3897,19,10,1,21,27,0,5,0,1,299,3207.000,-2.000,27128,17348,-260,-4186,-539,-31,48,13393,850,-15,7,13383,851,-1056,3193537,165,113,-172,-216
3205,3897,19,6,0,18,10,-2,-1,2,1,299,3207.000,-2.000,27128,17348,-260,-4186,-539,-31,48,13393,850,-15,7,13383,851,-1056,3193537,165,113,-172,-216
3225,3917,16,-6,2,19,20,1,-9,0,1,301,3227.000,-2.000,27149,17372,-300,-4096,-535,-42,51,13301,871,-13,7,13377,852,-1070,3212666,165,151,-160,-181
3225,3917,36,7,0,33,32,-2,4,0,1,301,3227.000,-2.000,27149,17372,-300,-4096,-535,-42,51,13301,871,-13,7,13377,852,-1070,3212666,165,151,-160,-181
3233,3926,20,7,-6,22,26,1,2,2,1,302,3238.000,-5.000,27159,17382,-286,-4106,-533,-48,51,13281,957,-12,7,13375,855,-1073,3223144,165,168,-143,-160
3233,3926,18,5,3,19,16,-2,1,0,1,302,3238.000,-5.000,27159,17382,-286,-4106,-533,-48,51,13281,957,-12,7,13375,855,-1073,3223144,165,168,-143,-160
3239,3932,18,-6,1,19,21,0,-9,-1,1,302,3238.000,1.000,27159,17382,-286,-4106,-533,-48,51,13281,957,-12,7,13375,855,-1073,3223144,165,168,-143,-160
3239,3932,30,6,-7,36,38,-2,7,-3,1,302,3238.000,1.000,27159,17382,-286,-4106,-533,-48,51,13281,957,-12,7,13375,855,-1073,3223144,165,168,-143,-160
3248,3941,20,11,4,22,29,-2,4,0,1,303,3248.000,0.000,27169,17366,-242,-4042,-542,-43,49,13220,897,-12,7,13367,853,-1073,3233904,165,219,-176,-235
3248,3941,17,5,-3,15,21,1,1,1,1,303,3248.000,0.000,27169,17366,-242,-4042,-542,-43,49,13220,897,-12,7,13367,853,-1073,3233904,165,219,-176,-235
3263,3956,17,-5,-6,18,20,-1,-9,-1,1,304,3258.000,5.000,27180,17354,-246,-4176,-540,-44,45,13301,869,-13,7,13372,851,-1059,3244792,167,187,-202,-291
3263,3956,32,7,2,37,30,-2,4,1,1,304,3258.000,5.000,27180,17354,-246,-4176,-540,-44,45,13301,869,-13,7,13372,851,-1059,3244792,167,187,-202,-291
3264,3957,19,12,2,22,30,-2,6,0,1,305,3268.000,-4.000,27190,17328,-246,-4120,-542,-45,45,13360,806,-14,7,13372,849,-1054,3254967,165,186,-223,-331
3264,3957,17,5,1,19,10,3,-2,0,1,305,3268.000,-4.000,27190,17328,-246,-4120,-542,-45,45,13360,806,-14,7,13372,849,-1054,3254967,165,186,-223,-331
3285,3977,18,-2,4,17,20,2,-8,-3,1,307,3289.000,-4.000,27210,17360,-216,-4092,-541,-39,45,13372,762,-15,7,13377,843,-1046,3273679,165,151,-274,-393
3285,3977,34,4,-2,37,39,0,8,1,1,307,3289.000,-4.000,27210,17360,-216,-4092,-541,-39,45,13372,762,-15,7,13377,843,-1046,3273679,165,151,-274,-393
3292,3984,20,7,-9,24,29,-1,2,1,1,307,3289.000,3.000,27210,17360,-216,-4092,-541,-39,45,13372,762,-15,7,13377,843,-1046,3273679,165,151,-274,-393
3292,3984,17,5,3,17,9,-3,-1,0,1,307,3289.000,3.000,27210,17360,-216,-4092,-541,-39,45,13372,762,-15,7,13377,843,-1046,3273679,165,151,-274,-393
3316,4008,16,-4,4,18,22,3,-6,-2,1,310,3319.000,-3.000,27241,17346,-234,-4106,-538,-41,50,13380,793,-15,7,13387,838,-1009,3294067,165,85,-354,-557
3316,4008,33,10,2,35,30,1,6,1,1,310,3319.000,-3.000,27241,17346,-234,-4106,-538,-41,50,13380,793,-15,7,13387,838,-1009,3294067,165,85,-354,-557
3317,4009,21,7,-1,23,29,-2,3,0,1,310,3319.000,-2.000,27241,17346,-234,-4106,-538,-41,50,13380,793,-15,7,13387,838,-1009,3294067,165,85,-354,-557
3317,4009,13,5,-5,13,11,-2,-1,0,1,310,3319.000,-2.000,27241,17346,-234,-4106,-538,-41,50,13380,793,-15,7,13387,838,-1009,3294067,165,85,-354,-557
3330,4023,16,-4,1,18,23,2,-10,-3,1,311,3329.000,1.000,27251,17378,-270,-4152,-537,-43,54,13433,860,-16,7,13388,839,-996,3302129,165,75,-360,-601
3330,4023,34,10,2,36,36,-1,2,-2,1,311,3329.000,1.000,27251,17378,-270,-4152,-537,-43,54,13433,860,-16,7,13388,839,-996,3302129,165,75,-360,-601
3332,4025,20,11,0,22,28,1,6,3,1,311,3329.000,3.000,27251,17378,-270,-4152,-537,-43,54,13433,860,-16,7,13388,839,-996,3302129,165,75,-360,-601
3332,4025,14,6,0,16,-2,-2,-4,1,1,311,3329.000,3.000,27251,17378,-270,-4152,-537,-43,54,13433,860,-16,7,13388,839,-996,3302129,165,75,-360,-601
3345,4038,17,-3,-3,19,21,0,-8,-4,1,313,3350.000,-5.000,27271,17308,-320,-4158,-539,-45,44,13501,1017,-17,7,13394,846,-927,3314527,165,40,-362,-804
3345,4038,31,11,5,31,31,-4,4,-1,1,313,3350.000,-5.000,27271,17308,-320,-4158,-539,-45,44,13501,1017,-17,7,13394,846,-927,3314527,165,40,-362,-804
3347,4039,21,7,1,24,29,-4,0,1,1,313,3350.000,-3.000,27271,17308,-320,-4158,-539,-45,44,13501,1017,-17,7,13394,846,-927,3314527,165,40,-362,-804
3347,4039,14,6,-1,14,0,2,-1,-2,1,313,3350.000,-3.000,27271,17308,-320,-4158,-539,-45,44,13501,1017,-17,7,13394,846,-927,3314527,165,40,-362,-804
3368,4060,16,-4,-5,17,22,1,-8,-6,1,315,3370.000,-2.000,27292,17398,-304,-4142,-537,-44,39,13376,945,-15,7,13384,854,-914,3316428,166,96,-310,-819
3368,4060,30,10,-1,37,26,2,8,2,1,315,3370.000,-2.000,27292,17398,-304,-4142,-537,-44,39,13376,945,-15,7,13384,854,-914,3316428,166,96,-310,-819
3369,4062,21,11,-3,23,28,-2,3,0,1,315,3370.000,-1.000,27292,17398,-304,-4142,-537,-44,39,13376,945,-15,7,13384,854,-914,3316428,166,96,-310,-819
3369,4062,12,6,4,14,8,1,0,1,1,315,3370.000,-1.000,27292,17398,-304,-4142,-537,-44,39,13376,945,-15,7,13384,854,-914,3316428,166,96,-310,-819
3383,4076,16,-3,-3,16,22,1,-9,-3,1,316,3380.000,3.000,27302,17336,-298,-4096,-542,-42,46,13293,958,-14,7,13382,858,-905,3316302,166,113,-297,-847
3383,4076,34,6,-2,29,29,0,6,3,1,316,3380.000,3.000,27302,17336,-298,-4096,-542,-42,46,13293,958,-14,7,13382,858,-905,3316302,166,113,-297,-847
3384,4077,20,9,2,23,26,0,7,0,1,316,3380.000,4.000,27302,17336,-298,-4096,-542,-42,46,13293,958,-14,7,13382,858,-905,3316302,166,113,-297,-847
3384,4077,13,4,3,11,3,-2,-3,2,1,316,3380.000,4.000,27302,17336,-298,-4096,-542,-42,46,13293,958,-14,7,13382,858,-905,3316302,166,113,-297,-847
3405,4098,16,-2,-3,17,23,3,-7,-5,1,318,3400.000,5.000,27322,17344,-294,-4140,-535,-41,44,13298,976,-14,7,13379,864,-896,3314216,165,132,-254,-836
3406,4098,31,12,3,29,30,-1,3,-1,1,319,3411.000,-5.000,27332,17382,-254,-4106,-536,-41,50,13294,890,-14,7,13376,863,-885,3314538,169,146,-281,-911
3407,4099,21,11,-3,22,26,2,6,-2,1,319,3411.000,-4.000,27332,17382,-254,-4106,-536,-41,50,13294,890,-14,7,13376,863,-885,3314538,169,146,-281,-911
3407,4099,13,6,-8,12,5,0,-2,1,1,319,3411.000,-4.000,27332,17382,-254,-4106,-536,-41,50,13294,890,-14,7,13376,863,-885,3314538,169,146,-281,-911
3444,4136,16,-1,0,17,23,-3,-2,-4,1,322,3441.000,3.000,27363,17336,-208,-4170,-538,-42,43,13487,773,-17,7,13394,855,-983,3323716,166,41,-223,-446
3444,4136,31,8,4,36,35,-4,4,0,1,322,3441.000,3.000,27363,17336,-208,-4170,-538,-42,43,13487,773,-17,7,13394,855,-983,3323716,166,41,-223,-446
3446,4138,20,10,-5,23,26,-3,2,-1,1,322,3441.000,5.000,27363,17336,-208,-4170,-538,-42,43,13487,773,-17,7,13394,855,-983,3323716,166,41,-223,-446
3446,4138,10,5,-3,12,15,3,-1,0,1,322,3441.000,5.000,27363,17336,-208,-4170,-538,-42,43,13487,773,-17,7,13394,855,-983,3323716,166,41,-223,-446
3447,4139,15,-2,3,16,23,2,-7,0,1,323,3451.000,-4.000,27373,17330,-212,-4150,-536,-42,39,13468,688,-16,7,13396,850,-1021,3333989,165,30,-224,-317
3447,4139,30,5,-8,31,30,-1,6,1,1,323,3451.000,-4.000,27373,17330,-212,-4150,-536,-42,39,13468,688,-16,7,13396,850,-1021,3333989,165,30,-224,-317
3450,4143,20,8,0,22,26,0,1,0,1,323,3451.000,-1.000,27373,17330,-212,-4150,-536,-42,39,13468,688,-16,7,13396,850,-1021,3333989,165,30,-224,-317
3451,4143,11,3,3,11,4,-2,-3,-2,1,323,3451.000,0.000,27373,17330,-212,-4150,-536,-42,39,13468,688,-16,7,13396,850,-1021,3333989,165,30,-224,-317
3466,4158,15,-2,-2,16,22,1,-7,-2,1,324,3461.000,5.000,27383,17348,-214,-4212,-540,-43,42,13553,687,-17,7,13404,845,-1042,3346212,165,-11,-232,-229
3466,4158,30,11,-4,29,35,-1,4,-1,1,324,3461.000,5.000,27383,17348,-214,-4212,-540,-43,42,13553,687,-17,7,13404,845,-1042,3346212,165,-11,-232,-229
3467,4159,21,12,5,22,26,-1,2,4,1,325,3472.000,-5.000,27393,17342,-184,-4160,-543,-39,45,13505,615,-17,7,13406,837,-1115,3358975,165,-22,-215,33
3467,4159,10,4,-6,11,-3,-1,-3,1,1,325,3472.000,-5.000,27393,17342,-184,-4160,-543,-39,45,13505,615,-17,7,13406,837,-1115,3358975,165,-22,-215,33
3488,4180,14,-3,8,16,23,2,-7,-3,1,327,3492.000,-4.000,27413,17366,-208,-4196,-530,-41,43,13512,658,-15,7,13411,828,-1184,3378511,165,-47,-219,273
3488,4180,29,8,-1,33,32,-1,1,0,1,327,3492.000,-4.000,27413,17366,-208,-4196,-530,-41,43,13512,658,-15,7,13411,828,-1184,3378511,165,-47,-219,273
3490,4182,20,7,-4,23,25,-3,3,1,1,327,3492.000,-2.000,27413,17366,-208,-4196,-530,-41,43,13512,658,-15,7,13411,828,-1184,3378511,165,-47,-219,273
3490,4182,11,5,-1,13,7,3,-2,1,1,327,3492.000,-2.000,27413,17366,-208,-4196,-530,-41,43,13512,658,-15,7,13411,828,-1184,3378511,165,-47,-219,273
3502,4195,15,-3,3,16,23,2,-4,-6,1,328,3502.000,0.000,27424,17354,-230,-4096,-531,-41,43,13432,686,-14,7,13407,826,-1265,3385935,166,-19,-161,583
3502,4195,25,11,1,35,25,-2,4,-1,1,328,3502.000,0.000,27424,17354,-230,-4096,-531,-41,43,13432,686,-14,7,13407,826,-1265,3385935,166,-19,-161,583
3509,4201,20,8,-1,23,24,1,4,2,1,329,3512.000,-3.000,27434,17382,-264,-4060,-535,-40,42,13358,727,-13,7,13400,826,-1352,3384405,165,29,-77,925
3509,4201,10,4,-5,11,17,2,-1,-1,1,329,3512.000,-3.000,27434,17382,-264,-4060,-535,-40,42,13358,727,-13,7,13400,826,-1352,3384405,165,29,-77,925
3525,4217,14,-3,-1,16,24,-1,-6,-2,1,330,3522.000,3.000,27444,17380,-290,-4072,-528,-37,41,13304,791,-11,7,13393,829,-1400,3368634,165,68,-11,1128
3525,4217,29,7,-3,30,32,2,4,-1,1,330,3522.000,3.000,27444,17380,-290,-4072,-528,-37,41,13304,791,-11,7,13393,829,-1400,3368634,165,68,-11,1128
3539,4232,20,9,1,23,24,2,4,2,1,332,3542.000,-3.000,27464,17280,-266,-4116,-539,-37,40,13340,859,-11,7,13389,830,-1432,3310092,165,93,31,1257
3539,4232,10,4,-4,9,5,0,-5,-1,1,332,3542.000,-3.000,27464,17280,-266,-4116,-539,-37,40,13340,859,-11,7,13389,830,-1432,3310092,165,93,31,1257
3548,4240,14,-2,4,17,23,0,-5,-2,1,333,3552.000,-4.000,27474,17358,-302,-4004,-540,-37,43,13260,885,-10,7,13377,834,-1516,3283139,165,166,135,1593
3548,4240,30,11,-4,31,24,-4,2,0,1,333,3552.000,-4.000,27474,17358,-302,-4004,-540,-37,43,13260,885,-10,7,13377,834,-1516,3283139,165,166,135,1593
