pc_t_ms,t_ms,ax_raw,ay_raw,az_raw,gx_raw,gy_raw,gz_raw,mad_roll_mdeg,mad_pitch_mdeg,mad_yaw_mdeg,mad_us,ekf_roll_mdeg,ekf_pitch_mdeg,ekf_yaw_mdeg,traceP_1e6,ekf_us,bx_uradps,by_uradps,bz_uradps
180,383672,17348,-278,-4060,-538,-46,40,161953,-38130,101679,7,13180,886,-28673,462449,165,-702,2127,9473
190,383683,17330,-254,-4044,-538,-42,43,162530,-37519,101922,7,13165,861,-28867,439946,165,-698,2125,9497
201,383694,17354,-264,-4012,-542,-38,43,163100,-36905,102156,7,13128,858,-28957,427696,165,-686,2124,9507
212,383705,17338,-298,-4118,-545,-42,44,163663,-36290,102380,7,13175,878,-28758,420214,165,-700,2127,9482
223,383717,17314,-250,-4058,-536,-41,39,164217,-35672,102595,7,13178,865,-28845,416342,166,-702,2126,9492
234,383728,17344,-244,-4040,-545,-43,45,164766,-35053,102802,7,13169,853,-28945,413245,166,-699,2124,9504
245,383739,17330,-266,-4142,-544,-45,46,165308,-34433,103000,7,13203,853,-28890,410500,166,-710,2124,9496
256,383750,17294,-290,-4066,-547,-54,43,165845,-33810,103190,7,13208,863,-28825,408458,167,-711,2125,9487
267,383761,17352,-290,-4148,-542,-49,42,166375,-33185,103371,7,13232,869,-28748,407217,169,-718,2126,9477
278,383772,17378,-266,-4076,-531,-40,47,166899,-32559,103543,7,13229,868,-28768,406305,165,-717,2126,9479
289,383783,17370,-262,-4088,-540,-37,49,167416,-31932,103709,7,13231,866,-28790,405545,165,-718,2126,9481
300,383794,17392,-260,-4078,-540,-44,44,167929,-31303,103866,7,13229,863,-28818,404895,165,-717,2126,9484
311,383805,17372,-226,-4062,-537,-39,47,168435,-30672,104016,7,13224,853,-28904,404308,165,-716,2125,9493
322,383816,17350,-254,-4114,-534,-43,43,168937,-30040,104159,7,13232,850,-28913,403628,165,-718,2125,9494
333,383827,17352,-256,-4058,-536,-43,49,169435,-29408,104294,7,13228,849,-28941,403004,165,-717,2124,9497
345,383838,17358,-250,-4058,-537,-41,51,169927,-28774,104423,7,13224,846,-28975,402423,165,-716,2124,9500
356,383849,17364,-258,-4072,-535,-40,44,170416,-28139,104545,7,13223,845,-28990,401853,165,-715,2124,9501
367,383860,17374,-274,-4124,-531,-40,52,170899,-27503,104659,7,13230,848,-28971,401338,165,-717,2124,9498
378,383871,17322,-258,-4132,-545,-38,54,171379,-26866,104768,7,13241,847,-28965,400921,165,-721,2124,9497
389,383882,17356,-268,-4028,-537,-40,47,171856,-26228,104870,7,13232,848,-28983,400564,165,-718,2124,9498
400,383893,17364,-276,-4118,-539,-42,44,172328,-25588,104966,7,13237,850,-28968,400253,165,-720,2124,9495
411,383904,17310,-258,-4154,-543,-43,44,172798,-24947,105056,7,13251,848,-28959,400001,165,-724,2124,9494
422,383915,17386,-292,-4090,-540,-43,42,173264,-24306,105140,7,13251,852,-28939,399793,165,-723,2124,9490
433,383927,17332,-238,-4106,-538,-44,47,173727,-23664,105217,7,13255,848,-28967,399637,165,-725,2124,9493
444,383938,17364,-240,-4060,-533,-47,44,174187,-23021,105288,7,13251,845,-29003,399469,166,-723,2124,9497
455,383949,17382,-246,-4106,-530,-45,48,174644,-22377,105354,7,13254,843,-29020,399288,166,-724,2124,9498
466,383960,17292,-258,-4128,-541,-47,51,175099,-21733,105414,7,13262,843,-29016,399084,167,-727,2123,9497
477,383971,17332,-282,-4074,-538,-43,49,175551,-21088,105468,7,13261,845,-29007,398914,165,-726,2124,9495
488,383982,17366,-246,-4050,-541,-35,40,175999,-20442,105517,7,13256,843,-29037,398793,165,-724,2123,9498
499,383993,17364,-264,-4056,-546,-39,42,176447,-19796,105561,7,13252,842,-29050,398661,165,-723,2124,9499
510,384004,17340,-256,-4084,-542,-45,47,176892,-19149,105599,7,13252,842,-29061,398538,165,-723,2123,9499
521,384015,17388,-252,-4054,-540,-45,44,177335,-18502,105632,7,13248,840,-29082,398428,165,-721,2123,9501
532,384026,17316,-290,-4096,-537,-37,44,177776,-17854,105659,7,13251,844,-29066,398302,165,-722,2124,9498
543,384037,17370,-258,-4058,-542,-47,43,178216,-17205,105682,7,13248,843,-29081,398230,165,-721,2124,9499
554,384048,17334,-230,-4110,-538,-38,46,178653,-16557,105698,7,13251,839,-29100,398157,165,-722,2123,9501
565,384059,17374,-268,-4136,-533,-39,41,179089,-15907,105710,7,13256,840,-29094,398075,165,-724,2123,9500
577,384070,17368,-216,-4148,-540,-39,45,179524,-15258,105716,7,13262,834,-29115,398014,165,-726,2122,9502
588,384081,17378,-298,-4098,-538,-39,41,179957,-14608,105718,7,13263,838,-29099,397932,165,-726,2123,9499
599,384092,17382,-270,-4098,-542,-43,40,-179609,-13958,105715,7,13263,838,-29101,397890,165,-726,2123,9498
610,384103,17356,-274,-4126,-536,-35,47,-179174,-13303,105706,7,13267,840,-29095,397860,165,-727,2123,9497
621,384115,17362,-248,-4130,-540,-40,44,-178740,-12647,105693,7,13271,838,-29103,397846,166,-728,2123,9497
632,384126,17332,-272,-4090,-534,-45,43,-178307,-11991,105674,7,13272,839,-29102,397828,166,-728,2123,9496
643,384137,17362,-274,-4058,-542,-47,43,-177873,-11336,105651,7,13269,840,-29107,397823,165,-727,2123,9496
654,384148,17380,-272,-4112,-532,-45,49,-177441,-10680,105622,7,13271,842,-29107,397829,165,-727,2124,9495
666,384159,17362,-304,-4150,-538,-43,55,-177009,-10025,105588,7,13277,847,-29088,397842,165,-729,2124,9492
677,384170,17346,-284,-4076,-541,-46,42,-176577,-9369,105550,7,13276,848,-29086,397862,165,-728,2124,9491
688,384181,17374,-278,-4134,-535,-48,47,-176149,-8719,105507,7,13280,850,-29084,397890,165,-729,2125,9489
699,384192,17382,-300,-4046,-543,-41,47,-175720,-8069,105460,7,13275,853,-29078,397917,165,-727,2125,9488
710,384203,17332,-304,-4178,-542,-45,49,-175292,-7419,105408,7,13284,857,-29065,397950,165,-730,2126,9485
721,384214,17356,-314,-4098,-540,-50,44,-174863,-6768,105351,7,13285,861,-29051,397971,165,-730,2127,9482
732,384225,17360,-232,-4112,-537,-39,46,-174435,-6118,105289,7,13287,858,-29073,397982,165,-730,2126,9484
743,384237,17362,-234,-4094,-536,-40,39,-174006,-5468,105223,7,13286,854,-29092,398005,165,-730,2126,9486
754,384248,17320,-254,-4090,-542,-44,38,-173577,-4818,105151,7,13287,852,-29104,398036,166,-730,2125,9487
765,384259,17388,-242,-4136,-533,-35,45,-173147,-4169,105075,7,13289,850,-29118,398073,166,-731,2125,9488
776,384270,17344,-214,-4160,-531,-47,47,-172716,-3520,104993,7,13296,846,-29141,398109,167,-733,2124,9491
788,384281,17370,-300,-4092,-536,-49,46,-172284,-2872,104907,7,13296,849,-29132,398142,165,-733,2125,9489
798,384292,17362,-316,-4080,-530,-45,51,-171851,-2224,104816,7,13295,854,-29119,398178,165,-732,2126,9486
809,384303,17360,-298,-4092,-548,-44,48,-171418,-1576,104721,7,13294,857,-29114,398215,165,-731,2126,9484
820,384314,17382,-212,-4122,-545,-42,49,-170983,-929,104622,7,13296,853,-29140,398250,165,-732,2125,9487
831,384325,17310,-268,-4084,-539,-43,45,-170550,-288,104518,7,13296,853,-29145,398290,165,-732,2125,9487
842,384336,17356,-266,-4032,-542,-45,45,-170116,353,104409,7,13290,853,-29154,398333,165,-730,2125,9487
853,384347,17352,-278,-4058,-540,-41,45,-169684,988,104296,7,13287,854,-29157,398381,166,-729,2125,9487
864,384358,17374,-256,-4176,-541,-44,50,-169251,1623,104178,7,13294,853,-29165,398432,166,-731,2125,9487
875,384369,17382,-268,-4106,-535,-40,41,-168812,2262,104054,7,13294,853,-29170,398481,165,-731,2125,9487
886,384379,17342,-242,-4078,-537,-45,38,-168372,2901,103925,7,13293,850,-29183,398531,165,-730,2125,9488
897,384390,17340,-258,-4070,-538,-38,41,-167930,3539,103792,7,13291,849,-29191,398583,165,-729,2125,9488
908,384401,17306,-260,-4060,-545,-45,47,-167485,4176,103653,7,13289,849,-29200,398637,165,-728,2125,9488
919,384412,17360,-282,-4120,-544,-48,44,-167039,4813,103510,7,13292,850,-29202,398694,165,-729,2125,9488
930,384423,17384,-280,-4146,-536,-43,53,-166590,5447,103361,7,13295,852,-29205,398750,165,-730,2125,9487
941,384434,17362,-252,-4090,-547,-46,51,-166139,6081,103208,7,13295,851,-29215,398805,165,-730,2125,9488
952,384445,17336,-254,-4084,-541,-46,42,-165685,6715,103049,7,13295,850,-29223,398861,165,-729,2125,9488
963,384456,17360,-254,-4134,-545,-44,43,-165229,7348,102885,7,13298,848,-29231,398918,165,-730,2125,9488
973,384467,17354,-278,-4158,-533,-45,42,-164770,7979,102715,7,13303,849,-29232,398975,169,-732,2125,9488
984,384478,17358,-278,-4130,-539,-45,41,-164308,8610,102539,7,13306,850,-29235,399030,165,-732,2125,9487
995,384489,17330,-268,-4106,-536,-41,40,-163844,9240,102358,7,13307,850,-29240,399085,165,-732,2125,9487
1006,384500,17322,-280,-4144,-541,-37,46,-163377,9868,102172,7,13311,851,-29242,399139,165,-734,2126,9486
1017,384511,17360,-266,-4098,-547,-45,47,-162906,10494,101981,7,13311,851,-29249,399192,165,-734,2126,9486
1028,384522,17374,-222,-4092,-543,-53,44,-162427,11125,101783,7,13311,847,-29265,399246,165,-733,2125,9488
1040,384533,17350,-234,-4086,-538,-40,45,-161946,11754,101578,7,13310,845,-29277,399303,165,-733,2124,9489
1051,384544,17386,-274,-4098,-539,-44,48,-161461,12381,101367,7,13309,846,-29282,399361,165,-732,2124,9489
1062,384555,17346,-310,-4074,-538,-45,42,-160972,13007,101150,7,13307,850,-29282,399419,165,-731,2125,9487
1073,384566,17360,-254,-4078,-539,-47,42,-160479,13632,100927,7,13306,848,-29290,399479,165,-730,2125,9488
1084,384577,17328,-274,-4102,-542,-51,41,-159981,14255,100698,7,13307,849,-29295,399540,165,-731,2125,9487
1095,384588,17336,-268,-4070,-539,-43,48,-159480,14876,100463,7,13305,849,-29301,399601,165,-730,2125,9487
1106,384599,17372,-272,-4026,-537,-47,44,-158974,15495,100222,7,13299,850,-29307,399663,165,-727,2126,9487
1117,384610,17370,-308,-4044,-536,-41,42,-158465,16113,99973,7,13295,853,-29312,399726,165,-726,2127,9486
1128,384621,17340,-262,-4092,-547,-45,44,-157954,16724,99721,7,13295,853,-29319,399788,165,-726,2126,9486
1139,384632,17372,-264,-4016,-538,-39,40,-157439,17333,99462,7,13288,852,-29323,399850,165,-723,2126,9486
1150,384643,17356,-254,-4078,-543,-44,41,-156919,17940,99196,7,13286,850,-29328,399912,165,-723,2126,9486
1161,384654,17386,-268,-4116,-546,-36,50,-156395,18545,98924,7,13287,851,-29336,399973,165,-723,2126,9486
1172,384665,17366,-276,-4120,-538,-46,48,-155865,19147,98645,7,13290,852,-29343,400035,165,-723,2126,9486
1183,384676,17370,-246,-4102,-540,-40,44,-155329,19748,98358,7,13290,850,-29348,400096,165,-723,2126,9486
1194,384687,17370,-274,-4068,-544,-40,53,-154789,20346,98065,7,13287,851,-29355,400158,165,-722,2126,9486
1204,384698,17348,-246,-4134,-542,-52,49,-154242,20941,97765,7,13292,850,-29360,400219,165,-723,2125,9486
1215,384709,17338,-288,-4098,-535,-45,46,-153689,21535,97457,7,13292,852,-29368,400281,165,-723,2126,9486
1226,384720,17362,-254,-4122,-533,-49,38,-153130,22126,97140,7,13295,851,-29373,400343,165,-724,2126,9486
1237,384731,17332,-278,-4026,-533,-51,46,-152564,22714,96816,7,13290,852,-29379,400405,165,-722,2126,9486
1248,384742,17364,-220,-4078,-545,-50,47,-151993,23299,96485,7,13289,848,-29380,400466,165,-721,2125,9486
1259,384753,17386,-252,-4094,-538,-47,45,-151415,23882,96146,7,13289,847,-29385,400526,165,-721,2124,9486
1270,384764,17342,-246,-4074,-544,-37,51,-150832,24461,95800,7,13287,846,-29390,400585,165,-720,2124,9486
1281,384775,17348,-292,-4118,-541,-44,39,-150240,25039,95444,7,13290,847,-29400,400644,165,-721,2125,9486
1292,384786,17370,-274,-4082,-545,-42,49,-149643,25612,95081,7,13289,848,-29408,400704,165,-720,2125,9486
1303,384797,17350,-278,-4032,-543,-46,45,-149037,26183,94709,7,13284,849,-29417,400764,165,-719,2125,9486
1314,384808,17352,-260,-4090,-545,-41,37,-148425,26751,94328,7,13284,848,-29422,400822,165,-718,2125,9486
1325,384819,17394,-216,-4094,-545,-36,46,-147805,27315,93939,7,13283,844,-29421,400880,165,-718,2124,9486
1336,384830,17354,-256,-4118,-545,-41,43,-147177,27875,93540,7,13285,843,-29426,400937,165,-719,2124,9486
1347,384841,17356,-266,-4118,-538,-47,40,-146541,28432,93132,7,13287,843,-29432,400994,165,-719,2124,9486
1358,384852,17374,-264,-4094,-534,-38,43,-145896,28985,92714,7,13287,843,-29438,401052,165,-719,2124,9486
1369,384863,17336,-228,-4086,-542,-47,43,-145243,29534,92288,7,13287,840,-29439,401109,166,-719,2123,9486
1380,384874,17324,-312,-4088,-545,-49,44,-144581,30079,91852,7,13288,844,-29454,401165,166,-719,2124,9486
1391,384885,17346,-242,-4106,-540,-45,40,-143911,30620,91405,7,13289,842,-29457,401223,166,-719,2124,9486
1402,384896,17402,-226,-4116,-535,-44,40,-143231,31156,90948,7,13290,838,-29457,401282,166,-719,2123,9486
1413,384906,17340,-240,-4084,-544,-40,42,-142543,31688,90482,7,13289,836,-29461,401339,165,-719,2122,9486
1424,384917,17324,-218,-4108,-533,-44,47,-141845,32215,90005,7,13291,833,-29460,401394,165,-719,2121,9486
1435,384928,17320,-292,-4122,-539,-38,45,-141138,32738,89517,7,13294,835,-29468,401447,165,-720,2122,9485
1446,384939,17382,-264,-4068,-544,-46,45,-140420,33256,89020,7,13292,835,-29478,401504,165,-719,2122,9486
1457,384950,17316,-280,-4132,-543,-45,48,-139692,33769,88511,7,13296,837,-29485,401560,165,-720,2122,9485
1468,384961,17398,-250,-4046,-542,-46,46,-138955,34276,87991,7,13291,836,-29493,401618,165,-718,2122,9486
1479,384972,17352,-304,-4140,-536,-45,44,-138206,34779,87459,7,13295,840,-29504,401674,165,-719,2123,9486
1490,384983,17386,-266,-4094,-540,-44,49,-137448,35275,86917,7,13295,840,-29511,401734,165,-719,2123,9486
1500,384994,17364,-236,-4064,-540,-50,40,-136677,35766,86362,7,13293,838,-29514,401793,165,-718,2123,9486
1511,385005,17368,-278,-4088,-539,-42,40,-135896,36251,85796,7,13292,839,-29523,401850,165,-718,2123,9486
1522,385016,17390,-292,-4090,-539,-42,45,-135105,36730,85217,7,13291,841,-29535,401909,165,-717,2124,9486
1533,385027,17362,-264,-4070,-538,-44,39,-134301,37203,84627,7,13289,841,-29541,401967,165,-716,2124,9486
1544,385038,17354,-324,-4118,-539,-40,40,-133486,37669,84024,7,13291,845,-29559,402024,165,-717,2126,9486
1555,385049,17310,-278,-4136,-539,-44,39,-132659,38129,83409,7,13295,846,-29570,402081,165,-718,2127,9487
1566,385060,17366,-262,-4078,-538,-37,41,-131820,38582,82781,7,13293,846,-29575,402139,165,-717,2127,9486
1577,385071,17360,-230,-4116,-545,-40,51,-130971,39028,82142,7,13295,843,-29576,402197,165,-718,2126,9486
1588,385082,17354,-278,-4104,-539,-40,44,-130108,39466,81489,7,13295,844,-29585,402256,165,-718,2126,9486
1599,385093,17314,-264,-4064,-539,-43,51,-129233,39897,80823,7,13293,845,-29591,402315,165,-717,2126,9486
1610,385104,17388,-238,-4124,-543,-42,52,-128346,40320,80146,7,13295,843,-29594,402374,165,-717,2125,9486
1621,385115,17366,-272,-4126,-539,-42,45,-127445,40735,79454,7,13297,844,-29602,402433,165,-718,2126,9486
1632,385126,17314,-254,-4090,-535,-53,42,-126531,41143,78748,7,13298,843,-29606,402492,165,-718,2125,9486
1643,385137,17344,-304,-4092,-531,-47,46,-125604,41541,78030,7,13299,846,-29618,402552,165,-718,2127,9486
1654,385148,17380,-270,-4118,-540,-55,48,-124665,41931,77298,7,13301,847,-29625,402612,165,-718,2127,9486
1665,385159,17360,-254,-4188,-542,-37,41,-123714,42313,76554,7,13308,846,-29634,402671,166,-720,2127,9487
1676,385170,17346,-256,-4104,-542,-44,43,-122749,42686,75795,7,13308,845,-29639,402732,171,-720,2126,9487
1687,385181,17314,-292,-4104,-537,-47,54,-121770,43049,75024,7,13310,848,-29649,402792,166,-720,2127,9487
1698,385192,17324,-296,-4096,-526,-52,41,-120778,43401,74238,7,13311,851,-29657,402853,166,-720,2128,9487
1709,385203,17364,-266,-4072,-536,-46,45,-119774,43745,73439,7,13309,851,-29660,402912,166,-719,2128,9486
1720,385213,17346,-266,-4108,-543,-43,44,-118757,44079,72628,7,13310,851,-29667,402972,165,-719,2128,9486
1731,385224,17360,-266,-4140,-542,-45,47,-117728,44403,71805,7,13313,851,-29676,403031,165,-720,2128,9487
1742,385235,17378,-244,-4100,-542,-46,46,-116686,44716,70968,7,13313,849,-29680,403091,165,-720,2128,9487
1753,385246,17328,-278,-4110,-530,-45,41,-115631,45017,70117,7,13314,850,-29687,403152,165,-720,2128,9487
1764,385257,17356,-260,-4078,-544,-37,41,-114564,45309,69254,7,13312,849,-29691,403212,165,-719,2128,9486
1775,385268,17338,-252,-4114,-549,-45,42,-113484,45590,68379,7,13314,847,-29697,403272,165,-720,2128,9486
1786,385279,17328,-218,-4126,-535,-48,42,-112392,45858,67492,7,13317,843,-29699,403333,165,-720,2126,9487
1796,385290,17360,-270,-4052,-541,-46,46,-111289,46115,66593,7,13313,844,-29706,403395,165,-719,2127,9487
1807,385301,17344,-246,-4088,-538,-44,40,-110174,46360,65682,7,13312,842,-29709,403456,165,-718,2126,9487
1819,385312,17362,-262,-4068,-539,-43,44,-109049,46592,64760,7,13309,842,-29715,403517,165,-717,2126,9487
1829,385323,17360,-280,-4066,-538,-48,38,-107911,46812,63827,7,13307,843,-29723,403576,165,-716,2127,9487
1840,385334,17312,-308,-4152,-542,-48,45,-106764,47020,62884,7,13313,846,-29739,403635,165,-718,2128,9487
1851,385345,17340,-252,-4130,-532,-48,46,-105607,47215,61931,7,13316,846,-29744,403693,165,-719,2128,9487
1862,385356,17354,-320,-4086,-536,-44,47,-104441,47396,60969,7,13315,850,-29757,403753,165,-718,2129,9487
1873,385367,17356,-252,-4112,-534,-43,41,-103266,47564,59997,7,13315,849,-29761,403810,165,-718,2129,9487
1884,385378,17366,-288,-4090,-535,-42,47,-102082,47719,59017,7,13314,851,-29769,403868,165,-718,2130,9487
1895,385389,17392,-268,-4070,-532,-44,43,-100891,47860,58030,7,13311,851,-29772,403925,165,-716,2129,9486
1906,385400,17334,-272,-4062,-536,-52,45,-99691,47988,57035,7,13309,852,-29776,403981,165,-715,2130,9486
1917,385411,17332,-270,-4172,-545,-40,38,-98495,48101,56041,7,13315,851,-29789,404036,165,-717,2130,9487
1928,385422,17350,-308,-4114,-542,-53,44,-97292,48201,55042,7,13317,855,-29802,404092,166,-717,2131,9487
1939,385432,17354,-250,-4116,-542,-37,42,-96085,48287,54037,7,13318,853,-29807,404146,165,-718,2131,9487
1950,385443,17346,-288,-4100,-540,-43,45,-94872,48358,53028,7,13318,855,-29815,404200,165,-717,2131,9487
1960,385454,17366,-216,-4092,-533,-40,43,-93656,48415,52015,7,13317,851,-29812,404254,165,-717,2130,9487
1971,385465,17338,-276,-4142,-534,-48,47,-92437,48457,50999,7,13321,852,-29822,404311,165,-718,2130,9487
1982,385476,17338,-260,-4182,-540,-42,45,-91215,48486,49981,7,13327,851,-29833,404368,165,-720,2130,9487
1993,385487,17328,-264,-4170,-543,-41,47,-89991,48501,48961,7,13333,851,-29844,404425,165,-722,2130,9488
2004,385498,17324,-258,-4072,-540,-46,38,-88764,48501,47939,7,13331,850,-29847,404481,165,-721,2130,9488
2015,385509,17374,-244,-4070,-544,-36,49,-87540,48487,46919,7,13327,848,-29850,404539,166,-719,2130,9488
2026,385520,17380,-244,-4034,-539,-40,50,-86315,48458,45899,7,13321,847,-29850,404598,165,-717,2129,9487
2037,385530,17378,-262,-4110,-538,-47,43,-85090,48414,44880,7,13321,846,-29856,404657,165,-717,2129,9487
2047,385541,17358,-264,-4098,-539,-38,44,-83867,48357,43863,7,13320,846,-29862,404715,165,-717,2129,9487
2058,385552,17336,-278,-4070,-539,-39,55,-82648,48285,42850,7,13318,848,-29869,404774,165,-716,2129,9487
2069,385563,17362,-262,-4086,-539,-36,41,-81430,48199,41839,7,13316,848,-29874,404831,165,-715,2129,9487
2080,385574,17368,-288,-4078,-534,-39,40,-80217,48097,40832,7,13313,849,-29883,404888,165,-714,2130,9487
2091,385585,17344,-254,-4200,-543,-38,43,-79008,47983,39830,7,13321,848,-29892,404944,165,-717,2130,9487
2102,385596,17362,-268,-4126,-538,-42,45,-77804,47854,38835,7,13323,848,-29899,405002,166,-717,2130,9488
2113,385607,17368,-238,-4078,-532,-42,38,-76605,47711,37845,7,13320,846,-29899,405060,166,-716,2129,9487
2124,385617,17396,-234,-4092,-544,-40,42,-75413,47555,36862,7,13318,843,-29901,405119,165,-716,2128,9487
2134,385628,17374,-258,-4158,-538,-46,44,-74228,47384,35887,7,13323,842,-29906,405178,165,-717,2128,9487
2145,385639,17312,-270,-4134,-546,-42,48,-73050,47201,34920,7,13326,843,-29914,405238,165,-718,2128,9487
2156,385650,17310,-286,-4154,-541,-38,40,-71880,47004,33961,7,13331,845,-29924,405299,165,-719,2129,9487
2167,385661,17330,-264,-4102,-540,-43,43,-70719,46794,33012,7,13331,844,-29930,405360,165,-719,2129,9487
2178,385672,17366,-260,-4078,-543,-42,41,-69566,46570,32072,7,13328,844,-29936,405422,165,-718,2129,9487
2189,385683,17376,-272,-4162,-539,-37,46,-68424,46334,31143,7,13332,844,-29944,405483,166,-719,2129,9487
2200,385694,17340,-272,-4114,-540,-42,45,-67291,46084,30224,7,13333,845,-29951,405545,166,-719,2129,9487
2211,385704,17410,-266,-4110,-538,-41,47,-66169,45823,29317,7,13332,845,-29957,405606,165,-719,2129,9487
2221,385715,17362,-248,-4110,-537,-46,42,-65056,45548,28421,7,13332,844,-29961,405668,165,-719,2129,9487
2232,385726,17334,-260,-4114,-538,-48,47,-63954,45262,27536,7,13334,844,-29967,405729,165,-719,2129,9487
2243,385737,17346,-254,-4116,-543,-43,40,-62863,44964,26663,7,13335,842,-29973,405791,165,-719,2129,9487
2254,385748,17336,-274,-4106,-549,-34,45,-61784,44655,25802,7,13334,843,-29981,405853,165,-719,2129,9487
2265,385759,17364,-316,-4144,-545,-38,45,-60716,44334,24953,7,13336,847,-29993,405915,165,-720,2130,9487
2276,385770,17346,-288,-4088,-534,-42,45,-59660,44001,24118,7,13335,849,-29999,405976,167,-719,2131,9487
2287,385781,17356,-282,-4106,-531,-40,42,-58616,43657,23296,7,13335,850,-30006,406036,166,-719,2132,9486
2298,385791,17294,-266,-4110,-537,-42,45,-57584,43302,22487,7,13336,851,-30013,406095,165,-719,2132,9487
2308,385802,17350,-262,-4062,-540,-43,45,-56563,42937,21690,7,13332,850,-30015,406155,165,-718,2131,9486
2319,385813,17352,-284,-4086,-536,-34,42,-55556,42561,20907,7,13330,852,-30022,406215,165,-717,2132,9486
2330,385824,17372,-246,-4104,-537,-39,47,-54561,42175,20138,7,13329,850,-30024,406274,165,-717,2131,9486
2341,385835,17370,-242,-4102,-541,-41,39,-53577,41780,19381,7,13328,848,-30026,406334,165,-716,2131,9486
2352,385846,17384,-230,-4074,-536,-40,44,-52606,41374,18639,7,13325,845,-30025,406394,165,-715,2130,9485
2363,385857,17340,-256,-4088,-543,-45,44,-51646,40960,17909,7,13324,844,-30029,406453,165,-715,2129,9485
2374,385868,17306,-256,-4092,-549,-43,47,-50698,40536,17192,7,13324,843,-30035,406511,169,-715,2129,9485
2385,385878,17368,-242,-4104,-539,-43,48,-49762,40103,16489,7,13324,842,-30037,406569,165,-714,2129,9485
2395,385889,17354,-254,-4212,-541,-42,46,-48839,39662,15800,7,13332,841,-30043,406627,165,-717,2128,9485
2406,385900,17306,-302,-4068,-542,-51,52,-47926,39212,15124,7,13331,845,-30055,406687,165,-716,2130,9485
2417,385911,17342,-284,-4126,-548,-49,47,-47026,38755,14461,7,13333,847,-30065,406747,165,-716,2130,9485
2428,385922,17368,-272,-4098,-539,-45,47,-46138,38288,13812,7,13332,847,-30072,406808,165,-716,2130,9485
2439,385933,17322,-270,-4096,-533,-41,46,-45261,37813,13176,7,13332,848,-30078,406868,165,-716,2131,9485
2450,385944,17368,-248,-4134,-540,-54,48,-44396,37331,12553,7,13335,847,-30083,406929,165,-716,2130,9485
2461,385955,17336,-236,-4050,-535,-50,50,-43541,36841,11943,7,13331,845,-30083,406989,166,-715,2129,9485
2472,385965,17350,-254,-4066,-542,-41,45,-42698,36344,11345,7,13328,844,-30087,407048,165,-713,2129,9485
2482,385976,17378,-290,-4158,-539,-38,44,-41867,35839,10760,7,13331,846,-30098,407105,165,-714,2130,9485
2493,385987,17368,-270,-4124,-539,-41,42,-41045,35328,10187,7,13332,846,-30106,407164,165,-715,2130,9485
2504,385998,17362,-294,-4050,-543,-49,44,-40234,34810,9626,7,13328,848,-30115,407224,165,-713,2131,9485
2515,386009,17326,-272,-4162,-548,-48,45,-39438,34290,9081,7,13333,849,-30127,407280,165,-714,2131,9485
2526,386020,17360,-304,-4070,-540,-45,51,-38654,33764,8550,7,13330,852,-30137,407339,167,-713,2132,9485
2537,386030,17318,-224,-4054,-539,-38,49,-37880,33231,8029,7,13326,849,-30131,407395,165,-712,2131,9484
2547,386041,17374,-252,-4022,-545,-39,44,-37115,32692,7520,7,13319,848,-30131,407451,165,-710,2130,9484
2558,386052,17336,-280,-4168,-541,-40,42,-36359,32148,7022,7,13324,849,-30144,407502,165,-711,2131,9484
2569,386063,17372,-286,-4036,-535,-51,43,-35612,31597,6537,7,13319,850,-30151,407557,165,-709,2131,9484
2580,386074,17348,-252,-4056,-540,-41,40,-34874,31041,6061,7,13315,849,-30151,407608,166,-708,2131,9483
2590,386084,17324,-266,-4050,-530,-41,43,-34145,30480,5598,7,13312,849,-30154,407657,165,-706,2131,9483
2601,386095,17290,-242,-4158,-537,-35,51,-33425,29914,5145,7,13317,848,-30156,407703,165,-708,2130,9483
2612,386106,17358,-252,-4052,-539,-46,47,-32713,29343,4702,7,13313,847,-30157,407753,165,-707,2130,9483
2623,386117,17398,-296,-4094,-533,-47,44,-32009,28768,4271,7,13312,849,-30172,407801,165,-706,2131,9483
2634,386128,17376,-242,-4178,-540,-48,45,-31312,28188,3849,7,13318,847,-30174,407849,166,-708,2130,9483
2644,386138,17370,-298,-4058,-531,-53,41,-30623,27602,3438,7,13315,850,-30186,407900,165,-706,2131,9483
2655,386149,17350,-244,-4046,-535,-48,44,-29942,27013,3036,7,13311,848,-30183,407950,165,-705,2130,9483
2666,386160,17348,-284,-4050,-536,-42,41,-29268,26419,2645,7,13307,849,-30194,407995,165,-703,2131,9483
2677,386171,17314,-312,-4080,-536,-44,49,-28600,25821,2263,7,13307,854,-30216,408038,165,-703,2133,9484
2688,386182,17364,-232,-4062,-542,-39,44,-27941,25220,1891,7,13303,851,-30207,408080,166,-702,2131,9483
2698,386192,17348,-282,-4146,-545,-46,41,-27286,24615,1527,7,13307,852,-30222,408122,165,-703,2132,9483
2709,386203,17308,-274,-4104,-534,-48,42,-26638,24005,1174,7,13309,852,-30232,408166,165,-703,2132,9484
2720,386214,17340,-262,-4126,-528,-36,45,-25998,23393,831,7,13311,852,-30238,408212,165,-704,2132,9484
2731,386225,17344,-254,-4134,-532,-38,40,-25369,22781,498,7,13314,851,-30242,408259,166,-705,2132,9484
2741,386235,17368,-224,-4140,-537,-46,52,-24745,22168,175,7,13317,848,-30238,408310,165,-705,2131,9483
2752,386246,17350,-262,-4152,-542,-45,43,-24126,21551,-139,7,13321,847,-30245,408362,165,-707,2131,9484
2763,386257,17350,-280,-4082,-543,-50,40,-23506,20925,-448,7,13320,848,-30254,408416,165,-706,2131,9484
2774,386268,17390,-266,-4144,-535,-33,38,-22894,20297,-748,7,13322,848,-30261,408471,166,-706,2131,9484
2784,386278,17360,-282,-4172,-535,-38,44,-22287,19666,-1039,7,13327,849,-30273,408526,165,-708,2132,9484
2795,386289,17340,-278,-4084,-530,-42,43,-21679,19027,-1324,7,13325,850,-30280,408584,165,-707,2132,9484
2806,386300,17302,-260,-4104,-536,-38,43,-21075,18386,-1601,7,13326,850,-30285,408641,165,-708,2132,9484
2817,386311,17314,-278,-4068,-531,-42,42,-20476,17742,-1869,7,13323,851,-30292,408698,165,-707,2133,9484
2828,386322,17386,-258,-4148,-537,-45,41,-19881,17096,-2130,7,13326,850,-30298,408755,165,-707,2132,9484
2839,386333,17352,-274,-4076,-533,-46,40,-19290,16448,-2381,7,13324,850,-30303,408813,165,-707,2133,9484
2850,386344,17380,-268,-4036,-539,-46,41,-18704,15798,-2626,7,13319,850,-30306,408870,166,-704,2133,9484
2861,386355,17362,-264,-4052,-526,-40,47,-18121,15146,-2861,7,13314,850,-30308,408923,165,-703,2132,9483
2872,386365,17340,-306,-4038,-536,-49,48,-17541,14493,-3088,7,13310,854,-30322,408974,165,-701,2134,9483
2882,386376,17372,-302,-4076,-539,-47,47,-16965,13838,-3309,7,13308,857,-30337,409022,165,-700,2135,9484
2893,386387,17362,-292,-4098,-533,-38,44,-16393,13182,-3521,7,13307,859,-30350,409066,165,-700,2136,9484
2904,386398,17356,-274,-4092,-537,-45,44,-15823,12524,-3725,7,13307,859,-30356,409107,165,-700,2136,9484
2915,386409,17388,-262,-4108,-537,-51,44,-15255,11865,-3922,7,13308,859,-30360,409149,165,-700,2136,9484
2926,386420,17320,-284,-4066,-540,-50,48,-14690,11206,-4112,7,13306,860,-30369,409190,165,-699,2136,9484
2937,386431,17374,-264,-4168,-541,-47,39,-14128,10545,-4294,7,13312,859,-30380,409231,166,-700,2136,9485
2948,386442,17306,-292,-4070,-536,-48,50,-13568,9884,-4469,7,13310,862,-30391,409273,166,-700,2137,9485
2958,386452,17324,-246,-4132,-537,-40,51,-13015,9228,-4634,7,13313,861,-30394,409311,165,-700,2136,9485
2969,386463,17328,-268,-4154,-538,-38,49,-12465,8572,-4792,7,13318,861,-30405,409354,165,-702,2136,9485
2980,386474,17384,-252,-4078,-547,-45,45,-11916,7915,-4944,7,13316,859,-30404,409399,165,-701,2136,9485
2991,386485,17368,-236,-4154,-539,-41,41,-11369,7257,-5088,7,13319,856,-30405,409447,166,-702,2135,9485
3001,386495,17394,-278,-4122,-539,-47,39,-10823,6600,-5225,7,13321,857,-30414,409499,165,-702,2135,9485
3012,386506,17350,-246,-4128,-536,-41,47,-10279,5944,-5354,7,13323,855,-30417,409550,165,-703,2135,9485
3023,386517,17374,-260,-4120,-547,-40,45,-9737,5288,-5477,7,13323,854,-30422,409605,165,-703,2134,9485
3034,386528,17404,-256,-4132,-542,-40,46,-9200,4638,-5591,7,13324,853,-30427,409659,165,-703,2134,9485
3044,386538,17346,-266,-4120,-541,-39,37,-8664,3989,-5699,7,13325,853,-30433,409715,165,-703,2134,9485
3055,386549,17348,-280,-4142,-544,-38,52,-8129,3342,-5800,7,13328,854,-30444,409770,165,-704,2135,9485
3066,386560,17328,-280,-4080,-538,-40,44,-7594,2695,-5893,7,13326,855,-30451,409826,169,-703,2135,9485
3077,386571,17388,-254,-4104,-535,-40,45,-7060,2050,-5979,7,13325,854,-30454,409882,166,-703,2135,9485
3087,386581,17352,-256,-4028,-532,-45,46,-6527,1407,-6058,7,13319,854,-30453,409937,165,-701,2134,9484
3098,386592,17318,-246,-4124,-533,-43,47,-5994,765,-6130,7,13322,852,-30455,409991,165,-702,2134,9484
3108,386603,17382,-254,-4078,-538,-45,39,-5466,131,-6194,7,13319,851,-30457,410046,166,-701,2133,9484
3119,386613,17364,-264,-4098,-542,-43,45,-4938,-500,-6253,7,13319,850,-30463,410100,165,-700,2133,9484
3130,386624,17366,-246,-4086,-543,-42,39,-4407,-1135,-6305,7,13317,848,-30464,410155,165,-700,2133,9484
3141,386635,17386,-232,-4118,-538,-44,49,-3872,-1771,-6350,7,13318,846,-30462,410209,165,-700,2132,9483
3152,386645,17326,-294,-4124,-539,-40,44,-3338,-2404,-6388,7,13320,848,-30476,410262,165,-700,2133,9484
3162,386656,17370,-270,-4118,-536,-50,41,-2803,-3034,-6419,7,13322,848,-30483,410317,165,-700,2133,9484
3173,386667,17328,-254,-4060,-543,-43,48,-2270,-3659,-6443,7,13319,848,-30487,410373,165,-699,2132,9484
3184,386678,17362,-290,-4112,-543,-40,47,-1737,-4281,-6461,7,13319,850,-30500,410428,165,-699,2133,9484
3195,386689,17368,-262,-4134,-544,-45,40,-1205,-4900,-6472,7,13321,849,-30506,410483,166,-700,2133,9484
3205,386699,17348,-274,-4142,-546,-45,43,-674,-5515,-6476,7,13325,849,-30515,410539,165,-701,2134,9484
3216,386710,17378,-244,-4180,-541,-44,46,-148,-6121,-6473,7,13330,848,-30519,410596,165,-702,2133,9484
3227,386721,17372,-268,-4046,-542,-39,46,376,-6721,-6464,7,13325,848,-30525,410655,165,-700,2133,9484
3237,386731,17390,-276,-4092,-544,-49,43,895,-7313,-6448,7,13324,848,-30533,410712,165,-700,2133,9484
3248,386742,17366,-308,-4118,-542,-44,40,1412,-7900,-6426,7,13325,851,-30549,410768,165,-700,2135,9484
3259,386753,17356,-276,-4096,-540,-42,44,1933,-8488,-6397,7,13324,852,-30557,410824,165,-699,2135,9484
3269,386763,17338,-278,-4126,-542,-34,44,2451,-9073,-6362,7,13325,853,-30567,410878,165,-700,2135,9485
3280,386774,17368,-288,-4062,-544,-40,41,2968,-9653,-6322,7,13322,854,-30575,410933,165,-699,2136,9484
3291,386785,17290,-258,-4176,-537,-48,43,3485,-10230,-6274,7,13329,854,-30585,410985,165,-701,2136,9485
3302,386796,17370,-244,-4036,-541,-42,43,4002,-10806,-6221,7,13323,851,-30582,411041,165,-699,2135,9484
3312,386806,17302,-260,-4068,-542,-34,44,4517,-11379,-6162,7,13321,851,-30586,411095,165,-698,2135,9484
3323,386817,17364,-260,-4166,-541,-43,39,5032,-11951,-6096,7,13325,850,-30593,411150,165,-699,2135,9484
3334,386828,17354,-252,-4142,-536,-38,44,5544,-12518,-6025,7,13328,849,-30598,411208,165,-700,2135,9484
3345,386839,17350,-238,-4102,-542,-38,44,6054,-13083,-5948,7,13327,846,-30599,411266,165,-700,2134,9484
3356,386850,17326,-246,-4116,-539,-40,49,6563,-13644,-5866,7,13329,845,-30602,411325,167,-700,2133,9484
3366,386860,17332,-226,-4076,-532,-50,44,7071,-14203,-5778,7,13327,842,-30600,411385,165,-699,2132,9484
3377,386871,17270,-276,-4074,-536,-53,41,7578,-14759,-5684,7,13327,843,-30610,411442,165,-699,2133,9484
3388,386882,17336,-218,-4110,-543,-41,38,8083,-15315,-5585,7,13328,839,-30607,411500,165,-699,2131,9484
3399,386893,17348,-250,-4114,-542,-41,50,8586,-15867,-5481,7,13328,838,-30611,411558,165,-699,2131,9484
3410,386904,17324,-234,-4092,-547,-41,44,9089,-16418,-5372,7,13328,835,-30613,411614,166,-699,2130,9484
3420,386914,17306,-272,-4026,-540,-35,44,9590,-16967,-5257,7,13321,836,-30626,411669,165,-697,2131,9484
3431,386925,17326,-274,-4118,-542,-50,45,10093,-17515,-5137,7,13324,837,-30635,411723,165,-697,2131,9484
3442,386936,17362,-252,-4154,-541,-42,49,10599,-18065,-5010,7,13327,837,-30638,411780,165,-698,2131,9484
3453,386947,17368,-270,-4112,-539,-47,46,11106,-18615,-4878,7,13328,837,-30646,411838,165,-698,2131,9484
3464,386958,17338,-238,-4098,-536,-49,50,11613,-19163,-4739,7,13328,836,-30648,411896,165,-698,2130,9484
3475,386969,17316,-262,-4088,-541,-41,51,12121,-19709,-4596,7,13327,836,-30655,411953,166,-698,2131,9484
3486,386980,17320,-236,-4068,-534,-37,44,12628,-20255,-4447,7,13324,834,-30657,412010,167,-697,2130,9484
3497,386990,17306,-258,-4114,-544,-38,44,13137,-20799,-4292,7,13326,834,-30663,412064,165,-697,2130,9484
3507,387001,17400,-252,-4152,-533,-40,42,13649,-21343,-4130,7,13328,833,-30665,412120,165,-698,2129,9484
3518,387012,17332,-264,-4094,-536,-40,44,14161,-21886,-3964,7,13328,833,-30673,412176,165,-697,2130,9484
3529,387023,17354,-284,-4078,-539,-42,45,14675,-22427,-3792,7,13325,835,-30685,412233,165,-697,2130,9484
3540,387034,17316,-274,-4090,-539,-40,44,15191,-22967,-3613,7,13325,836,-30695,412290,165,-696,2131,9484
3551,387045,17324,-268,-4102,-539,-45,47,15710,-23506,-3429,7,13325,837,-30703,412347,165,-696,2131,9485
3562,387056,17280,-250,-4062,-544,-50,49,16231,-24043,-3239,7,13324,836,-30708,412404,165,-695,2131,9485
3573,387067,17354,-286,-4080,-536,-48,45,16755,-24580,-3043,7,13322,839,-30721,412461,166,-695,2132,9485
3584,387077,17382,-246,-4106,-539,-47,41,17283,-25116,-2840,7,13322,837,-30723,412517,165,-694,2131,9485
3594,387088,17358,-298,-4026,-539,-36,43,17812,-25651,-2631,7,13315,840,-30741,412572,165,-692,2132,9485
3605,387099,17372,-286,-4082,-536,-44,53,18345,-26183,-2415,7,13313,842,-30754,412624,165,-691,2133,9486
3616,387110,17352,-260,-4108,-544,-45,46,18882,-26715,-2193,7,13314,842,-30759,412672,165,-692,2133,9486
3627,387121,17370,-212,-4036,-541,-46,44,19422,-27245,-1965,7,13309,838,-30750,412722,165,-690,2131,9485
3638,387132,17352,-258,-4062,-540,-46,36,19967,-27775,-1729,7,13306,837,-30755,412769,165,-689,2131,9485
3649,387143,17320,-268,-4084,-541,-38,41,20516,-28303,-1487,8,13305,837,-30765,412814,165,-688,2132,9485
3660,387154,17384,-230,-4122,-544,-39,41,21069,-28829,-1238,7,13306,834,-30761,412861,166,-688,2131,9484
3670,387164,17350,-258,-4110,-550,-36,45,21626,-29354,-982,7,13307,833,-30767,412907,165,-689,2131,9484
3681,387175,17326,-250,-4052,-546,-40,52,22183,-29872,-721,7,13303,833,-30772,412953,165,-687,2130,9484
3692,387186,17352,-272,-4124,-542,-33,50,22746,-30388,-453,7,13305,834,-30782,412997,165,-688,2131,9484
3703,387197,17350,-266,-4078,-537,-31,44,23314,-30903,-176,7,13302,835,-30791,413044,165,-687,2131,9484
3714,387208,17356,-240,-4086,-543,-36,43,23887,-31416,107,7,13301,833,-30791,413090,166,-687,2130,9484
3724,387218,17310,-260,-4072,-538,-41,52,24461,-31922,396,7,13299,833,-30798,413133,165,-686,2130,9484
3735,387229,17306,-262,-4042,-533,-43,46,25042,-32427,693,7,13296,834,-30806,413176,165,-685,2130,9484
3746,387240,17370,-256,-4084,-532,-46,50,25629,-32929,998,9,13295,834,-30811,413218,165,-685,2130,9484
3756,387250,17380,-276,-4026,-540,-41,48,26221,-33430,1311,7,13289,835,-30825,413260,169,-683,2131,9485
3767,387261,17328,-284,-4050,-538,-36,48,26824,-33933,1635,7,13285,838,-30842,413296,165,-681,2132,9486
3778,387272,17370,-332,-4024,-536,-47,48,27435,-34433,1967,7,13280,844,-30879,413330,165,-679,2135,9488
3789,387283,17370,-268,-4050,-533,-51,44,28053,-34930,2308,7,13277,844,-30885,413345,165,-678,2135,9488
3800,387294,17354,-286,-4134,-534,-50,50,28678,-35425,2658,7,13281,846,-30904,413358,166,-679,2136,9490
3810,387304,17300,-272,-4058,-543,-38,46,29309,-35917,3016,7,13279,847,-30913,413363,165,-678,2136,9490
3821,387315,17292,-262,-4092,-542,-35,49,29947,-36406,3383,7,13280,847,-30920,413365,165,-679,2136,9490
3832,387326,17362,-254,-4092,-542,-42,49,30593,-36893,3759,7,13280,847,-30922,413375,165,-679,2136,9489
3843,387337,17394,-240,-4202,-537,-45,47,31249,-37377,4146,7,13288,845,-30922,413393,165,-681,2135,9489
3854,387348,17368,-306,-4094,-537,-43,45,31913,-37858,4542,7,13287,848,-30943,413422,166,-681,2136,9490
3864,387358,17334,-310,-4080,-545,-34,48,32583,-38335,4947,7,13286,852,-30967,413438,165,-680,2138,9491
3875,387369,17374,-232,-4038,-542,-39,42,33262,-38810,5363,7,13281,849,-30955,413439,165,-679,2137,9490
3886,387380,17372,-238,-4020,-538,-50,50,33951,-39281,5788,7,13276,847,-30946,413455,165,-677,2135,9488
3897,387391,17320,-242,-4084,-537,-48,42,34650,-39748,6225,7,13276,845,-30942,413478,165,-677,2135,9488
3907,387401,17354,-270,-4172,-537,-42,49,35358,-40211,6672,7,13283,846,-30953,413508,165,-678,2135,9488
3918,387412,17362,-290,-4136,-536,-44,43,36075,-40671,7131,7,13286,848,-30970,413543,165,-679,2136,9489
3929,387423,17338,-212,-4088,-544,-44,45,36802,-41127,7599,7,13286,843,-30957,413575,165,-679,2134,9488
3940,387434,17352,-242,-4078,-544,-37,45,37538,-41579,8079,7,13285,841,-30956,413617,165,-679,2133,9487
3951,387445,17322,-294,-4128,-545,-43,44,38284,-42026,8570,7,13289,844,-30975,413661,166,-680,2135,9488
3961,387455,17346,-316,-4006,-543,-42,51,39041,-42469,9072,7,13281,849,-30997,413704,165,-677,2136,9489
3972,387466,17342,-262,-4140,-546,-40,52,39808,-42907,9586,7,13285,849,-31005,413734,165,-678,2136,9489
3983,387477,17340,-256,-4096,-545,-46,50,40587,-43341,10112,7,13286,848,-31009,413768,165,-679,2136,9489
3994,387488,17378,-278,-4092,-538,-51,46,41385,-43773,10655,7,13287,850,-31019,413807,165,-678,2136,9489
4005,387499,17318,-250,-4106,-545,-48,47,42193,-44200,11210,7,13289,848,-31022,413842,165,-679,2136,9489
4016,387510,17348,-244,-4072,-540,-38,41,43012,-44622,11779,7,13287,846,-31020,413882,167,-678,2135,9488
4027,387521,17388,-260,-4102,-544,-34,41,43843,-45039,12361,7,13286,845,-31026,413927,166,-678,2135,9488
4037,387531,17352,-244,-4092,-542,-43,48,44687,-45450,12955,7,13286,844,-31025,413971,165,-678,2134,9488
4048,387542,17320,-252,-4106,-535,-45,50,45543,-45854,13562,7,13288,843,-31028,414018,165,-678,2134,9488
4059,387553,17330,-270,-4118,-536,-41,47,46412,-46252,14184,7,13291,844,-31037,414068,165,-679,2134,9488
4070,387564,17396,-294,-4124,-542,-46,47,47295,-46644,14818,7,13293,847,-31052,414119,165,-679,2135,9488
4081,387575,17340,-286,-4096,-535,-39,46,48189,-47030,15467,7,13293,849,-31064,414169,165,-679,2136,9489
4092,387586,17332,-248,-4060,-535,-40,50,49096,-47409,16129,7,13290,848,-31064,414216,165,-678,2135,9488
4103,387597,17334,-262,-4164,-545,-45,56,50017,-47781,16804,7,13296,848,-31072,414265,166,-680,2136,9489
4114,387608,17384,-274,-4104,-542,-44,47,50951,-48146,17495,7,13297,849,-31081,414318,166,-680,2136,9489
4124,387618,17324,-300,-4112,-535,-37,43,51899,-48504,18200,7,13298,852,-31096,414370,165,-680,2137,9489
4135,387629,17348,-252,-4112,-545,-41,45,52859,-48855,18918,7,13299,851,-31100,414418,165,-681,2137,9489
4146,387640,17328,-302,-4090,-544,-43,42,53834,-49198,19651,7,13299,853,-31115,414469,165,-680,2138,9489
4157,387651,17370,-304,-4136,-539,-49,47,54824,-49532,20399,7,13303,856,-31131,414517,165,-681,2139,9490
4168,387662,17374,-244,-4094,-546,-45,42,55826,-49860,21161,7,13302,854,-31132,414559,165,-681,2138,9490
4179,387673,17420,-234,-4056,-539,-43,49,56843,-50178,21936,7,13298,852,-31128,414606,165,-679,2137,9489
4190,387684,17368,-246,-4046,-539,-50,49,57873,-50488,22727,7,13294,850,-31126,414657,165,-678,2136,9488
4201,387695,17350,-252,-4062,-541,-43,53,58915,-50788,23530,7,13292,850,-31128,414709,166,-677,2136,9488
4211,387705,17352,-254,-4072,-542,-44,46,59972,-51080,24349,7,13290,849,-31130,414760,165,-676,2136,9488
4222,387716,17358,-258,-4132,-544,-41,50,61043,-51363,25181,7,13293,849,-31136,414812,165,-677,2135,9488
4233,387727,17378,-274,-4072,-532,-42,42,62128,-51635,26028,7,13291,849,-31143,414866,165,-676,2136,9488
4244,387738,17332,-264,-4086,-538,-40,45,63225,-51898,26889,7,13290,849,-31149,414918,165,-676,2136,9488
4255,387749,17370,-196,-4142,-532,-38,51,64335,-52150,27763,7,13293,844,-31136,414970,165,-677,2133,9487
4266,387760,17370,-238,-4028,-537,-41,45,65458,-52392,28650,7,13287,842,-31137,415025,165,-675,2133,9486
4277,387771,17344,-234,-4134,-541,-46,48,66594,-52624,29550,8,13291,840,-31134,415075,165,-676,2132,9486
4288,387782,17374,-222,-4120,-541,-42,40,67742,-52846,30463,7,13293,836,-31129,415125,166,-676,2131,9485
4299,387792,17330,-248,-4090,-538,-45,45,68902,-53056,31388,7,13293,835,-31132,415170,165,-676,2130,9485
4309,387803,17316,-270,-4114,-538,-40,50,70073,-53255,32324,7,13295,836,-31139,415214,165,-677,2130,9485
4320,387814,17386,-238,-4128,-533,-35,45,71255,-53442,33273,7,13297,834,-31138,415261,165,-677,2130,9484
4331,387825,17370,-282,-4096,-538,-42,45,72449,-53619,34232,7,13296,836,-31150,415306,165,-677,2130,9485
4342,387836,17358,-232,-4150,-538,-44,45,73652,-53783,35201,7,13301,834,-31147,415355,165,-678,2129,9484
4353,387847,17412,-294,-4088,-546,-46,44,74866,-53936,36181,7,13299,836,-31162,415401,165,-678,2130,9485
4364,387858,17318,-246,-4094,-541,-45,46,76087,-54077,37169,7,13300,835,-31165,415451,165,-678,2130,9484
4375,387869,17340,-258,-4040,-539,-49,43,77318,-54205,38167,7,13296,834,-31175,415500,166,-676,2130,9485
4386,387879,17336,-298,-4102,-536,-44,45,78557,-54320,39172,7,13297,838,-31190,415549,165,-676,2131,9485
4396,387890,17372,-278,-4094,-541,-38,50,79801,-54424,40184,7,13296,839,-31200,415604,165,-676,2132,9486
4407,387901,17334,-308,-4064,-538,-41,40,81053,-54514,41204,7,13294,843,-31219,415659,165,-675,2133,9486
4418,387912,17346,-270,-4124,-538,-31,40,82310,-54592,42229,7,13295,843,-31227,415715,165,-676,2134,9486
4429,387923,17344,-252,-4100,-537,-38,42,83572,-54656,43260,7,13296,842,-31230,415773,165,-676,2133,9486
4440,387934,17336,-234,-4106,-536,-46,46,84839,-54707,44293,7,13297,839,-31229,415831,165,-676,2132,9486
4451,387945,17346,-246,-4116,-533,-42,43,86109,-54745,45331,7,13299,838,-31231,415889,169,-676,2132,9486
4462,387956,17372,-214,-4132,-534,-46,49,87382,-54770,46372,7,13302,835,-31227,415947,166,-677,2131,9485
4473,387966,17332,-246,-4096,-531,-48,44,88656,-54781,47414,7,13302,833,-31230,416003,165,-677,2130,9485
4483,387977,17382,-236,-4072,-533,-45,49,89931,-54780,48456,7,13300,832,-31233,416059,165,-676,2130,9485
4494,387988,17364,-246,-4188,-537,-45,55,91205,-54765,49497,7,13307,831,-31231,416112,165,-678,2129,9485
4505,387999,17362,-304,-4156,-536,-39,53,92478,-54737,50538,7,13311,836,-31241,416165,165,-679,2130,9484
4516,388010,17370,-268,-4116,-541,-36,51,93749,-54696,51578,7,13312,837,-31248,416222,165,-679,2130,9484
4527,388021,17350,-296,-4066,-542,-42,49,95018,-54642,52615,7,13309,840,-31260,416279,165,-678,2131,9484
4538,388032,17336,-294,-4076,-535,-39,44,96284,-54574,53649,7,13307,842,-31272,416338,165,-678,2132,9484
4549,388043,17312,-250,-4078,-538,-44,47,97547,-54493,54679,7,13306,842,-31276,416398,166,-677,2132,9484
4560,388053,17372,-222,-4060,-538,-44,53,98803,-54400,55703,7,13303,839,-31276,416458,165,-676,2131,9484
4571,388064,17334,-292,-4112,-534,-41,46,100055,-54293,56722,7,13304,842,-31287,416514,165,-676,2132,9484
4581,388075,17394,-250,-4076,-544,-41,48,101311,-54172,57743,7,13302,841,-31292,416574,165,-675,2131,9484
4592,388086,17332,-256,-4102,-544,-46,48,102559,-54039,58757,7,13303,840,-31297,416632,165,-676,2131,9484
4603,388097,17384,-286,-4088,-545,-46,41,103801,-53893,59763,7,13302,842,-31309,416690,165,-675,2132,9485
4614,388108,17320,-286,-4088,-538,-44,51,105032,-53734,60759,7,13302,844,-31321,416749,165,-675,2133,9485
4625,388119,17364,-256,-4054,-535,-40,48,106254,-53562,61746,7,13298,844,-31325,416808,165,-674,2132,9485
4636,388130,17316,-228,-4050,-539,-41,48,107467,-53378,62723,7,13295,841,-31322,416866,165,-672,2131,9484
4647,388141,17342,-236,-4110,-546,-41,45,108670,-53182,63691,7,13296,839,-31322,416920,165,-673,2130,9484
4658,388152,17334,-288,-4154,-544,-44,45,109862,-52974,64647,7,13301,841,-31334,416972,165,-674,2131,9484
4669,388163,17360,-282,-4084,-538,-45,46,111043,-52754,65591,7,13300,842,-31344,417030,165,-674,2132,9484
4681,388174,17344,-246,-4076,-542,-42,45,112213,-52522,66524,7,13299,841,-31347,417088,165,-673,2131,9484
4691,388185,17340,-266,-4122,-537,-41,44,113370,-52279,67444,7,13301,841,-31354,417145,165,-674,2131,9484
4702,388196,17324,-218,-4134,-529,-40,53,114512,-52023,68349,7,13304,838,-31350,417203,165,-675,2130,9484
4713,388207,17374,-250,-4112,-539,-46,46,115645,-51758,69243,7,13305,837,-31354,417260,165,-675,2130,9484
4724,388218,17422,-238,-4092,-545,-45,45,116764,-51482,70124,7,13304,835,-31357,417317,165,-674,2129,9484
4735,388229,17434,-260,-4072,-542,-43,36,117871,-51194,70993,7,13301,834,-31366,417372,165,-673,2129,9484
4746,388240,17340,-246,-4002,-538,-35,40,118963,-50897,71846,7,13292,833,-31374,417425,165,-670,2129,9484
4757,388251,17336,-226,-4058,-543,-39,42,120041,-50589,72685,7,13289,829,-31373,417475,165,-669,2128,9484
4768,388262,17384,-246,-4054,-541,-38,45,121106,-50272,73510,7,13285,828,-31380,417521,165,-668,2128,9484
4779,388273,17248,-250,-4064,-543,-37,44,122156,-49945,74320,7,13284,827,-31385,417563,166,-668,2128,9484
4790,388284,17346,-254,-4040,-541,-48,48,123193,-49608,75115,7,13281,827,-31395,417606,166,-666,2128,9485
4801,388295,17352,-218,-4090,-542,-53,50,124216,-49262,75896,7,13282,824,-31388,417648,166,-666,2126,9484
4812,388306,17296,-218,-4100,-544,-46,43,125225,-48908,76663,7,13284,821,-31379,417683,166,-667,2125,9483
4823,388317,17338,-254,-4052,-532,-48,39,126220,-48543,77414,7,13281,820,-31390,417709,166,-666,2125,9483
4834,388327,17402,-254,-4052,-540,-41,48,127200,-48171,78151,7,13277,820,-31402,417740,165,-664,2125,9484
4845,388338,17336,-282,-4158,-538,-42,46,128167,-47789,78874,7,13283,822,-31410,417772,165,-666,2126,9484
4856,388349,17348,-306,-4068,-538,-39,44,129119,-47400,79582,7,13281,826,-31435,417811,165,-665,2128,9485
4867,388360,17350,-282,-4178,-532,-40,39,130059,-47002,80276,7,13288,828,-31444,417859,165,-667,2128,9485
4877,388371,17364,-326,-4064,-535,-43,40,130984,-46597,80955,7,13285,833,-31470,417912,165,-666,2130,9487
4888,388382,17342,-286,-4068,-536,-41,40,131896,-46184,81621,7,13283,835,-31485,417965,165,-666,2131,9487
4899,388393,17386,-252,-4084,-536,-41,44,132794,-45764,82271,7,13282,834,-31488,418015,165,-665,2131,9487
4910,388404,17344,-250,-4128,-531,-43,45,133679,-45337,82908,7,13285,833,-31490,418066,165,-666,2131,9487
4921,388415,17344,-246,-4096,-538,-45,40,134552,-44903,83531,7,13286,832,-31493,418119,165,-666,2130,9486
4932,388426,17300,-248,-4066,-540,-44,42,135411,-44462,84141,7,13285,831,-31496,418172,165,-665,2130,9486
4943,388437,17332,-256,-4128,-542,-40,46,136258,-44016,84737,7,13288,830,-31501,418226,165,-666,2130,9486
4954,388448,17316,-256,-4074,-544,-48,44,137093,-43563,85320,7,13288,830,-31507,418282,165,-666,2130,9486
4965,388459,17354,-240,-4090,-531,-49,48,137915,-43103,85888,7,13288,829,-31508,418338,165,-666,2129,9486
4976,388470,17330,-268,-4040,-542,-41,43,138725,-42638,86445,7,13284,829,-31519,418394,165,-664,2130,9486
4987,388481,17348,-248,-4090,-549,-44,38,139524,-42167,86990,7,13284,828,-31523,418447,165,-664,2129,9486
4998,388492,17400,-230,-4160,-541,-47,41,140311,-41690,87522,7,13289,825,-31520,418502,165,-665,2128,9485
5009,388503,17320,-226,-4098,-539,-40,46,141086,-41207,88040,7,13290,822,-31518,418557,165,-666,2127,9485
5020,388514,17310,-224,-4050,-542,-42,48,141850,-40720,88547,7,13287,820,-31519,418611,165,-665,2126,9485
5031,388525,17388,-274,-4066,-540,-40,44,142603,-40227,89041,7,13284,821,-31533,418661,165,-664,2127,9485
5042,388536,17332,-236,-4086,-542,-43,44,143346,-39729,89525,7,13284,819,-31534,418713,165,-663,2127,9485
5053,388547,17356,-286,-4034,-544,-42,48,144078,-39227,89996,7,13279,822,-31554,418763,165,-662,2128,9486
5064,388558,17310,-292,-4076,-540,-34,53,144798,-38720,90456,7,13278,825,-31574,418813,165,-662,2129,9487
5075,388569,17344,-296,-4088,-538,-48,44,145510,-38208,90904,8,13278,829,-31593,418863,165,-661,2130,9488
5086,388580,17350,-232,-4088,-544,-42,46,146213,-37692,91342,7,13278,826,-31591,418912,167,-661,2129,9488
5097,388591,17382,-270,-4096,-539,-53,50,146906,-37171,91770,7,13279,828,-31601,418963,166,-661,2130,9488
5108,388602,17406,-256,-4062,-537,-52,41,147590,-36645,92186,7,13277,827,-31607,419014,166,-660,2130,9488
5119,388613,17350,-266,-4056,-543,-45,38,148265,-36116,92593,7,13274,827,-31617,419062,166,-659,2130,9488
5130,388624,17380,-262,-4132,-543,-32,42,148930,-35582,92990,7,13276,827,-31624,419108,166,-660,2130,9488
5141,388634,17334,-264,-4060,-541,-47,49,149587,-35046,93376,7,13275,828,-31633,419156,165,-659,2130,9488
5152,388645,17350,-220,-4062,-536,-35,48,150234,-34505,93751,7,13272,825,-31627,419202,169,-658,2129,9487
5163,388656,17356,-288,-4176,-543,-33,45,150874,-33961,94119,7,13278,827,-31642,419250,165,-660,2130,9488
5173,388667,17374,-304,-4072,-538,-43,45,151506,-33413,94476,7,13276,831,-31662,419302,165,-660,2132,9489
5184,388678,17330,-272,-4070,-541,-42,46,152130,-32861,94824,7,13275,832,-31672,419348,165,-659,2132,9489
5195,388689,17352,-232,-4054,-545,-39,40,152747,-32307,95163,7,13272,829,-31669,419391,165,-658,2131,9488
5206,388700,17354,-294,-4058,-542,-42,43,153356,-31749,95494,7,13270,832,-31687,419438,165,-657,2132,9489
5217,388711,17328,-272,-4088,-536,-41,42,153958,-31188,95815,7,13270,833,-31697,419477,165,-657,2133,9490
5228,388722,17312,-232,-4126,-535,-41,53,154552,-30624,96127,7,13274,831,-31696,419515,165,-658,2132,9489
5239,388733,17352,-252,-4028,-539,-38,54,155140,-30058,96431,7,13269,831,-31698,419561,165,-657,2132,9489
5250,388744,17348,-264,-4124,-531,-47,45,155722,-29488,96726,7,13272,832,-31706,419606,165,-657,2132,9489
5261,388755,17386,-230,-4090,-537,-44,42,156298,-28916,97014,7,13272,829,-31703,419654,165,-657,2131,9488
5272,388766,17390,-270,-4144,-537,-30,51,156866,-28341,97294,7,13275,830,-31713,419705,165,-658,2131,9489
5283,388777,17376,-240,-4140,-533,-43,48,157429,-27763,97566,7,13278,829,-31713,419758,165,-659,2131,9488
5294,388788,17362,-256,-4088,-532,-52,54,157987,-27183,97829,7,13279,830,-31719,419814,165,-659,2131,9488
5305,388799,17316,-242,-4048,-542,-39,40,158539,-26600,98087,7,13276,828,-31721,419869,165,-658,2130,9488
5316,388810,17336,-286,-4082,-543,-36,38,159085,-26015,98337,7,13275,829,-31735,419924,165,-658,2131,9489
5327,388821,17358,-278,-4134,-535,-39,48,159625,-25428,98579,7,13278,831,-31747,419978,165,-659,2132,9489
5338,388832,17426,-290,-4106,-530,-41,46,160161,-24838,98814,7,13278,834,-31759,420033,165,-658,2132,9489
5349,388843,17376,-258,-4144,-539,-34,45,160691,-24246,99042,7,13281,834,-31766,420086,165,-660,2132,9489
5360,388854,17362,-236,-4108,-539,-40,51,161217,-23653,99264,7,13282,832,-31768,420140,165,-660,2132,9489
5371,388865,17452,-222,-4154,-541,-40,47,161739,-23057,99478,7,13285,829,-31767,420198,165,-661,2131,9489
5382,388876,17334,-290,-4062,-539,-42,52,162256,-22460,99686,7,13283,832,-31780,420258,165,-660,2132,9489
5393,388887,17320,-276,-4102,-537,-46,45,162769,-21860,99888,7,13285,834,-31790,420316,166,-660,2132,9489
5404,388898,17316,-228,-4086,-543,-38,45,163277,-21259,100083,7,13284,831,-31790,420372,166,-660,2131,9489
5415,388909,17356,-246,-4120,-542,-41,45,163786,-20651,100273,7,13287,830,-31794,420433,166,-661,2131,9489
5426,388920,17310,-276,-4088,-539,-41,50,164290,-20041,100457,7,13287,832,-31804,420494,165,-661,2131,9489
5437,388931,17354,-246,-4034,-538,-44,54,164791,-19430,100634,7,13282,831,-31807,420555,165,-659,2131,9489
5448,388942,17370,-272,-4072,-539,-43,52,165288,-18818,100805,7,13280,833,-31816,420616,165,-658,2131,9489
5459,388953,17330,-240,-4084,-541,-36,45,165781,-18203,100971,7,13280,831,-31818,420674,165,-658,2131,9489
5470,388964,17378,-296,-4104,-535,-42,48,166271,-17587,101130,7,13280,834,-31832,420733,165,-658,2132,9489
5481,388975,17358,-250,-4066,-545,-45,42,166759,-16969,101284,7,13278,833,-31836,420791,165,-657,2132,9489
5492,388986,17366,-284,-4130,-537,-47,48,167243,-16350,101431,7,13282,835,-31849,420849,165,-658,2132,9489
5503,388997,17312,-220,-4106,-535,-51,44,167724,-15729,101572,7,13285,832,-31846,420906,165,-659,2131,9489
5514,389008,17358,-268,-4126,-536,-46,53,168203,-15107,101708,7,13288,833,-31854,420967,165,-659,2131,9489
5525,389019,17334,-286,-4058,-539,-50,45,168679,-14484,101838,7,13286,835,-31865,421029,165,-658,2132,9489
5536,389030,17332,-262,-4090,-542,-44,44,169152,-13860,101963,7,13286,835,-31872,421088,165,-658,2132,9489
5547,389041,17312,-266,-4028,-540,-44,45,169622,-13234,102082,7,13281,836,-31878,421148,165,-657,2132,9489
5558,389052,17348,-254,-4038,-532,-40,45,170090,-12607,102195,7,13277,835,-31881,421205,165,-655,2132,9489
5570,389063,17344,-302,-4086,-536,-47,49,170556,-11979,102303,7,13277,839,-31898,421260,165,-655,2133,9490
5581,389074,17380,-250,-4080,-537,-43,56,171020,-11351,102406,7,13276,839,-31900,421313,165,-655,2133,9489
5592,389085,17388,-316,-4148,-543,-54,50,171483,-10721,102504,7,13281,844,-31923,421367,165,-656,2135,9490
5603,389097,17414,-264,-4094,-530,-42,47,171943,-10090,102596,7,13280,844,-31927,421417,165,-655,2135,9490
5614,389108,17366,-282,-4082,-539,-40,45,172401,-9458,102683,7,13279,845,-31937,421466,166,-655,2135,9490
5625,389119,17306,-258,-4156,-535,-47,39,172855,-8830,102764,7,13286,844,-31947,421511,166,-657,2135,9491
5636,389129,17338,-268,-4108,-541,-53,43,173307,-8201,102841,7,13288,845,-31956,421559,165,-657,2136,9491
5647,389140,17314,-222,-4098,-547,-41,46,173757,-7571,102913,7,13289,841,-31955,421606,165,-657,2134,9491
5657,389151,17374,-228,-4012,-540,-51,42,174207,-6941,102979,7,13283,838,-31950,421660,165,-655,2133,9490
5668,389162,17318,-240,-4130,-530,-48,42,174656,-6309,103040,7,13287,836,-31952,421715,165,-656,2133,9490
5679,389173,17342,-270,-4048,-533,-39,43,175102,-5677,103095,7,13284,837,-31959,421774,165,-655,2133,9490
5690,389184,17392,-282,-4032,-541,-42,49,175548,-5045,103147,7,13278,839,-31969,421832,165,-653,2133,9490
5701,389195,17340,-274,-4044,-536,-45,50,175994,-4412,103193,7,13275,840,-31977,421884,165,-652,2134,9490
5712,389206,17336,-260,-4050,-539,-40,47,176438,-3779,103235,7,13272,840,-31982,421934,165,-651,2134,9490
5723,389217,17368,-236,-4116,-537,-49,44,176883,-3145,103272,7,13274,838,-31980,421983,165,-651,2133,9489
5734,389228,17346,-218,-4158,-542,-50,46,177327,-2510,103304,7,13280,834,-31975,422036,165,-653,2132,9489
5745,389239,17370,-210,-4102,-543,-48,47,177770,-1875,103331,7,13282,830,-31969,422094,165,-653,2130,9488
5756,389250,17326,-264,-4036,-543,-33,45,178212,-1240,103354,7,13277,830,-31979,422151,165,-651,2130,9488
5767,389261,17320,-266,-4134,-540,-39,42,178655,-603,103371,7,13281,831,-31986,422206,165,-653,2131,9488
5778,389272,17370,-284,-4120,-539,-37,40,179094,27,103383,7,13282,832,-31998,422264,165,-653,2131,9489
5789,389283,17316,-294,-4110,-535,-43,40,179526,649,103391,7,13285,835,-32012,422322,166,-654,2132,9489
5799,389293,17320,-288,-4088,-538,-37,44,179961,1276,103394,7,13284,837,-32024,422381,165,-654,2133,9489
5810,389304,17396,-232,-4122,-542,-42,51,-179598,1908,103392,7,13286,835,-32025,422441,165,-654,2132,9489
5821,389315,17366,-292,-4056,-540,-47,45,-179154,2545,103385,7,13283,838,-32037,422503,165,-653,2133,9489
5832,389326,17348,-262,-4020,-539,-42,39,-178710,3183,103374,7,13277,837,-32041,422562,165,-651,2133,9489
5843,389337,17348,-230,-4114,-545,-43,43,-178265,3821,103358,7,13279,834,-32040,422619,165,-651,2132,9489
5854,389348,17348,-236,-4108,-537,-48,47,-177819,4459,103336,7,13281,833,-32040,422677,169,-652,2132,9488
5865,389359,17360,-256,-4070,-534,-50,43,-177372,5097,103309,7,13280,832,-32045,422737,165,-651,2132,9488
5876,389370,17366,-280,-4042,-535,-43,48,-176924,5735,103278,7,13276,834,-32057,422796,165,-650,2132,9488
5887,389381,17336,-280,-4100,-536,-42,42,-176476,6373,103241,7,13277,836,-32069,422852,165,-650,2133,9489
5898,389392,17352,-248,-4108,-543,-45,42,-176026,7011,103200,7,13279,834,-32072,422909,165,-650,2132,9489
5909,389403,17336,-276,-4086,-546,-43,40,-175575,7649,103154,7,13279,835,-32083,422966,165,-650,2133,9489
5920,389414,17284,-252,-4116,-547,-44,38,-175123,8287,103103,7,13283,834,-32089,423023,165,-651,2133,9489
5931,389425,17392,-224,-4158,-543,-46,44,-174669,8925,103047,7,13288,830,-32088,423084,165,-652,2132,9489
5942,389436,17346,-282,-4128,-548,-44,52,-174214,9562,102986,7,13291,833,-32100,423147,165,-653,2132,9489
5953,389447,17334,-256,-4108,-546,-47,47,-173756,10198,102920,7,13293,832,-32106,423210,165,-653,2132,9489
5964,389458,17350,-268,-4136,-538,-42,49,-173294,10840,102847,7,13296,833,-32114,423275,165,-654,2133,9489
5976,389469,17392,-298,-4072,-537,-40,42,-172829,11481,102768,7,13293,836,-32125,423342,165,-653,2134,9489
5986,389480,17348,-280,-4120,-539,-41,48,-172362,12122,102684,7,13295,838,-32135,423406,165,-654,2134,9489
5997,389491,17334,-284,-4144,-541,-45,46,-171893,12763,102595,7,13300,840,-32147,423470,165,-655,2135,9489
6008,389502,17346,-254,-4112,-542,-42,47,-171422,13403,102500,7,13301,839,-32153,423534,165,-655,2135,9489
6019,389513,17324,-272,-4056,-543,-51,49,-170947,14042,102400,7,13299,840,-32159,423598,165,-654,2135,9489
6030,389524,17288,-270,-4146,-545,-49,40,-170469,14681,102294,7,13305,841,-32171,423661,165,-656,2135,9490
6041,389535,17332,-240,-4116,-545,-38,46,-169990,15320,102183,7,13307,839,-32176,423725,165,-656,2135,9490
6052,389546,17370,-260,-4108,-545,-49,48,-169507,15957,102065,7,13308,839,-32183,423790,165,-656,2135,9490
6063,389557,17372,-226,-4160,-537,-44,43,-169021,16594,101941,7,13312,835,-32188,423855,165,-657,2134,9490
6075,389568,17350,-260,-4042,-540,-45,49,-168531,17230,101811,7,13308,836,-32193,423922,165,-656,2134,9490
6086,389579,17352,-270,-4106,-533,-41,50,-168038,17865,101674,7,13308,837,-32200,423988,165,-656,2134,9490
6097,389590,17376,-244,-4076,-539,-45,47,-167542,18499,101532,7,13306,836,-32204,424054,165,-655,2134,9490
6108,389602,17366,-254,-4114,-540,-42,44,-167041,19133,101383,7,13307,835,-32209,424120,166,-655,2134,9490
6119,389613,17316,-284,-4112,-533,-47,52,-166537,19765,101227,7,13309,838,-32218,424186,166,-656,2134,9490
6130,389624,17346,-280,-4084,-539,-45,46,-166029,20397,101066,7,13308,839,-32226,424252,166,-655,2135,9490
6141,389635,17320,-298,-4110,-536,-40,44,-165516,21027,100897,7,13309,842,-32237,424317,166,-655,2136,9490
6152,389646,17324,-254,-4080,-544,-45,46,-164999,21656,100722,7,13309,841,-32241,424381,165,-655,2135,9490
6163,389657,17340,-276,-4134,-542,-48,48,-164478,22284,100540,7,13312,843,-32251,424446,165,-656,2136,9490
6174,389668,17358,-322,-4124,-544,-44,48,-163952,22911,100351,7,13314,848,-32265,424510,165,-656,2137,9490
6185,389679,17296,-292,-4066,-542,-52,46,-163420,23537,100155,7,13313,850,-32271,424571,165,-655,2138,9489
6196,389690,17304,-288,-4102,-543,-49,50,-162883,24160,99952,7,13315,853,-32281,424631,165,-656,2139,9489
6207,389701,17340,-210,-4062,-545,-42,50,-162346,24778,99743,7,13311,848,-32277,424689,165,-655,2137,9489
6218,389712,17368,-250,-4120,-540,-43,51,-161803,25393,99526,7,13313,847,-32282,424752,165,-655,2137,9489
6229,389723,17386,-314,-4118,-534,-37,43,-161255,26008,99301,7,13313,851,-32294,424817,165,-655,2138,9489
6240,389734,17406,-290,-4130,-545,-47,41,-160700,26621,99069,7,13315,853,-32304,424879,165,-655,2139,9489
6251,389745,17400,-234,-4076,-538,-45,45,-160140,27232,98828,7,13312,850,-32303,424940,165,-654,2138,9488
6262,389756,17362,-242,-4102,-540,-36,48,-159574,27841,98580,7,13312,848,-32305,425003,165,-654,2137,9488
6273,389767,17304,-228,-4160,-539,-44,51,-159001,28447,98323,7,13318,845,-32312,425067,166,-656,2136,9489
6285,389778,17350,-192,-4096,-537,-43,49,-158421,29052,98058,7,13317,840,-32311,425133,166,-655,2134,9489
6295,389789,17294,-278,-4038,-537,-45,45,-157833,29655,97784,7,13313,841,-32318,425201,166,-654,2135,9489
6306,389800,17342,-286,-4164,-538,-43,49,-157240,30256,97501,7,13318,843,-32329,425267,167,-655,2136,9489
6317,389811,17338,-244,-4072,-538,-49,48,-156638,30854,97209,7,13317,842,-32332,425334,166,-655,2135,9489
6328,389821,17344,-278,-4060,-539,-47,40,-156028,31450,96908,7,13314,843,-32339,425401,165,-653,2135,9489
6339,389832,17410,-252,-4012,-536,-41,37,-155411,32044,96596,7,13306,841,-32340,425466,165,-651,2135,9489
6350,389843,17400,-234,-4092,-537,-39,41,-154786,32635,96276,7,13304,839,-32340,425529,165,-650,2134,9488
6360,389854,17344,-300,-4072,-541,-47,41,-154152,33224,95946,7,13302,842,-32354,425591,165,-650,2135,9489
6371,389865,17362,-294,-4042,-538,-44,43,-153510,33810,95605,7,13298,844,-32366,425652,165,-648,2136,9489
6382,389876,17394,-276,-4118,-540,-43,48,-152859,34392,95254,7,13299,845,-32376,425710,165,-648,2137,9489
6393,389887,17314,-280,-4090,-539,-48,48,-152198,34971,94893,7,13299,847,-32386,425767,165,-648,2137,9489
6404,389898,17334,-294,-4084,-541,-51,47,-151527,35547,94521,7,13299,850,-32400,425823,165,-648,2138,9490
6416,389909,17352,-304,-4102,-538,-45,46,-150847,36120,94138,7,13300,853,-32416,425876,165,-648,2139,9490
6426,389920,17348,-226,-4048,-541,-37,49,-150158,36689,93743,7,13296,850,-32407,425924,165,-646,2138,9489
6437,389931,17352,-250,-4108,-537,-41,48,-149458,37255,93337,7,13297,849,-32409,425978,165,-647,2137,9489
6449,389942,17332,-250,-4164,-544,-47,49,-148747,37817,92920,7,13303,848,-32417,426034,165,-648,2137,9489
6459,389953,17342,-266,-4110,-545,-42,48,-148026,38375,92490,7,13304,848,-32424,426093,165,-649,2137,9489
6470,389964,17404,-232,-4074,-547,-54,47,-147292,38929,92048,7,13302,845,-32422,426154,165,-648,2136,9489
6481,389975,17352,-224,-4136,-547,-43,41,-146548,39480,91592,7,13305,841,-32421,426214,165,-648,2135,9488
6492,389986,17392,-226,-4034,-540,-41,39,-145791,40026,91123,7,13299,838,-32419,426277,165,-647,2134,9488
6503,389997,17314,-270,-4062,-536,-51,44,-145020,40566,90641,7,13298,839,-32428,426334,165,-646,2134,9488
6514,390008,17310,-228,-4122,-548,-45,47,-144239,41103,90146,7,13301,836,-32425,426391,165,-646,2133,9487
6525,390019,17344,-238,-4060,-534,-39,46,-143444,41634,89635,7,13298,834,-32427,426448,165,-646,2133,9487
6536,390030,17372,-238,-4040,-539,-47,43,-142635,42160,89111,7,13294,832,-32430,426503,165,-644,2132,9487
6547,390041,17374,-238,-4066,-539,-42,44,-141813,42681,88572,7,13291,830,-32431,426553,165,-643,2132,9487
6558,390052,17338,-276,-4100,-535,-38,49,-140977,43196,88018,7,13291,832,-32443,426599,169,-643,2132,9487
6569,390063,17354,-282,-4106,-538,-42,45,-140126,43706,87448,7,13292,834,-32456,426649,165,-643,2133,9488
6580,390074,17380,-300,-4106,-539,-47,49,-139260,44209,86864,7,13293,837,-32474,426703,166,-643,2134,9489
6591,390085,17360,-274,-4056,-538,-40,47,-138380,44706,86263,7,13289,838,-32484,426759,166,-642,2135,9489
6602,390096,17366,-266,-4102,-532,-38,39,-137484,45197,85646,7,13289,838,-32491,426813,166,-642,2135,9489
6613,390107,17348,-228,-4060,-533,-41,39,-136572,45682,85011,7,13287,835,-32486,426867,166,-641,2134,9488
6624,390118,17296,-216,-4062,-531,-46,36,-135643,46159,84360,7,13285,831,-32477,426918,165,-641,2132,9487
6635,390128,17326,-228,-4064,-523,-39,45,-134698,46628,83691,7,13283,828,-32473,426965,165,-640,2131,9487
6645,390139,17378,-260,-4102,-542,-45,51,-133738,47091,83008,7,13284,829,-32480,427009,165,-640,2131,9487
6656,390150,17388,-270,-4058,-540,-45,39,-132759,47547,82304,7,13281,829,-32493,427053,165,-639,2132,9487
6667,390161,17354,-260,-4130,-544,-44,45,-131764,47994,81585,7,13284,829,-32498,427099,165,-640,2132,9487
6678,390172,17338,-246,-4064,-541,-40,43,-130751,48433,80846,7,13282,828,-32502,427146,165,-639,2131,9487
6689,390183,17346,-236,-4110,-542,-42,43,-129721,48864,80090,7,13284,826,-32500,427192,165,-639,2131,9486
6700,390194,17330,-306,-4088,-538,-34,45,-128673,49285,79315,7,13283,830,-32523,427235,165,-639,2132,9488
6711,390205,17294,-210,-4078,-538,-40,42,-127606,49698,78520,7,13283,825,-32513,427285,165,-639,2131,9487
6722,390216,17294,-222,-4034,-531,-43,44,-126520,50100,77706,7,13279,822,-32510,427329,165,-638,2130,9486
6733,390227,17372,-226,-4122,-542,-38,54,-125418,50492,76876,7,13281,820,-32505,427368,165,-638,2128,9485
6744,390238,17382,-278,-4092,-541,-38,38,-124295,50876,76024,7,13280,821,-32519,427401,165,-638,2129,9486
6755,390249,17384,-286,-4112,-538,-43,48,-123154,51248,75154,7,13281,824,-32534,427441,165,-638,2130,9486
6766,390260,17362,-294,-4098,-543,-43,48,-121994,51609,74266,7,13282,827,-32552,427488,165,-638,2131,9487
6777,390271,17354,-224,-4048,-541,-41,47,-120816,51960,73358,7,13278,824,-32550,427540,165,-637,2130,9487
6788,390282,17376,-280,-4110,-537,-39,46,-119618,52298,72430,7,13279,826,-32563,427587,165,-637,2131,9487
6799,390293,17376,-262,-4062,-537,-43,41,-118402,52625,71483,7,13276,826,-32572,427638,165,-636,2131,9487
6810,390304,17384,-268,-4028,-534,-37,47,-117167,52940,70518,7,13270,827,-32584,427688,165,-635,2132,9488
6821,390315,17376,-300,-4064,-540,-46,42,-115913,53242,69534,7,13268,830,-32607,427735,165,-634,2133,9489
6832,390326,17334,-274,-4122,-537,-42,45,-114642,53532,68531,7,13271,832,-32619,427780,165,-635,2134,9490
6843,390337,17346,-284,-4112,-537,-43,45,-113353,53808,67511,7,13274,834,-32634,427827,165,-635,2135,9491
6854,390348,17330,-266,-4176,-542,-41,46,-112047,54071,66474,7,13281,834,-32645,427874,165,-637,2135,9491
6865,390359,17338,-290,-4132,-538,-37,46,-110725,54320,65420,7,13284,837,-32660,427924,165,-638,2136,9492
6876,390370,17370,-240,-4116,-536,-38,46,-109386,54554,64350,7,13286,835,-32662,427973,167,-638,2135,9491
6887,390381,17384,-254,-4034,-539,-40,45,-108031,54774,63263,7,13280,835,-32664,428026,166,-637,2135,9491
6898,390392,17338,-274,-4108,-546,-45,47,-106661,54980,62162,7,13282,836,-32676,428077,166,-637,2135,9491
6909,390403,17314,-258,-4130,-541,-41,48,-105277,55170,61046,7,13286,836,-32683,428128,166,-638,2135,9491
6920,390414,17350,-250,-4100,-531,-45,39,-103878,55345,59916,7,13287,834,-32686,428181,166,-638,2135,9491
6931,390424,17378,-254,-4108,-543,-47,49,-102467,55504,58775,7,13288,834,-32691,428237,165,-638,2135,9491
6941,390435,17368,-270,-4100,-545,-49,42,-101044,55648,57621,7,13289,834,-32700,428294,165,-638,2135,9491
6952,390446,17356,-260,-4036,-534,-47,48,-99611,55775,56457,7,13284,835,-32704,428350,165,-637,2135,9491
6963,390457,17330,-276,-4054,-532,-46,49,-98180,55884,55293,7,13282,837,-32714,428404,165,-636,2136,9491
6974,390468,17398,-274,-4154,-534,-41,44,-96741,55977,54120,7,13286,837,-32724,428456,165,-637,2136,9492
6985,390479,17336,-246,-4106,-536,-41,45,-95294,56054,52940,7,13287,836,-32727,428507,165,-637,2136,9492
6996,390490,17330,-240,-4144,-536,-47,51,-93841,56115,51755,7,13292,835,-32729,428561,165,-638,2135,9492
7007,390501,17326,-284,-4066,-539,-46,55,-92384,56158,50566,7,13291,838,-32740,428620,165,-638,2136,9492
7018,390512,17342,-268,-4090,-542,-42,60,-90925,56186,49375,7,13290,839,-32748,428676,166,-637,2136,9492
7028,390523,17390,-262,-4086,-536,-44,50,-89461,56196,48180,7,13289,840,-32753,428732,166,-637,2136,9492
7039,390533,17334,-222,-4092,-533,-41,51,-87997,56188,46984,7,13289,837,-32750,428787,165,-637,2135,9491
7050,390544,17374,-310,-4120,-534,-43,48,-86533,56165,45789,7,13291,841,-32767,428847,165,-637,2136,9492
7061,390555,17336,-246,-4112,-537,-39,45,-85070,56124,44594,7,13293,840,-32770,428904,165,-638,2136,9492
7072,390566,17334,-248,-4106,-533,-35,47,-83610,56066,43403,7,13293,839,-32773,428962,165,-638,2135,9492
7083,390577,17332,-286,-4098,-541,-46,50,-82153,55992,42216,7,13294,841,-32784,429023,165,-638,2136,9492
7094,390588,17358,-300,-4012,-543,-46,50,-80701,55901,41035,7,13288,845,-32795,429082,165,-636,2137,9492
7105,390599,17316,-282,-4130,-538,-43,51,-79256,55793,39861,7,13292,847,-32808,429136,165,-637,2138,9492
7115,390610,17388,-246,-4050,-539,-43,42,-77818,55669,38694,7,13287,845,-32807,429189,167,-635,2137,9491
7126,390620,17346,-240,-4112,-543,-38,46,-76389,55528,37537,7,13289,843,-32809,429243,165,-636,2136,9491
7137,390631,17370,-230,-4092,-539,-38,44,-74970,55371,36389,7,13288,840,-32807,429302,165,-636,2135,9491
7148,390642,17376,-254,-4110,-533,-38,37,-73560,55198,35252,7,13289,839,-32811,429362,165,-636,2135,9491
7159,390653,17320,-260,-4070,-541,-34,47,-72163,55009,34128,7,13287,839,-32817,429423,165,-635,2135,9491
7170,390664,17356,-282,-4110,-547,-43,41,-70777,54805,33016,7,13288,840,-32829,429484,165,-636,2136,9491
7181,390675,17370,-256,-4114,-538,-46,43,-69405,54585,31918,7,13290,839,-32834,429545,165,-636,2136,9491
7192,390686,17338,-264,-4114,-541,-40,46,-68047,54350,30836,7,13291,840,-32841,429607,165,-636,2136,9491
7203,390697,17314,-270,-4102,-537,-47,40,-66702,54100,29768,7,13293,840,-32849,429669,166,-637,2136,9491
7213,390707,17364,-250,-4112,-543,-45,39,-65374,53836,28716,7,13294,838,-32853,429731,165,-637,2136,9491
7224,390718,17364,-268,-4126,-537,-48,39,-64061,53557,27681,7,13297,838,-32861,429795,165,-637,2136,9491
7235,390729,17344,-258,-4100,-535,-47,46,-62765,53264,26664,7,13298,838,-32866,429859,165,-637,2136,9491
7246,390740,17356,-252,-4082,-539,-37,46,-61486,52958,25665,7,13296,837,-32871,429923,165,-637,2136,9491
7257,390751,17344,-268,-4128,-537,-46,48,-60224,52638,24683,7,13299,838,-32878,429988,169,-637,2136,9491
7268,390762,17334,-264,-4054,-546,-43,44,-58978,52306,23718,7,13296,838,-32885,430053,165,-636,2136,9491
7279,390773,17378,-278,-4056,-547,-44,39,-57750,51960,22773,7,13293,839,-32893,430117,165,-635,2136,9491
7290,390784,17314,-268,-4086,-540,-47,49,-56540,51603,21847,7,13293,840,-32901,430179,166,-635,2136,9491
7300,390794,17418,-264,-4092,-535,-36,54,-55351,51233,20942,7,13291,841,-32906,430241,165,-635,2136,9491
7311,390805,17350,-294,-4156,-538,-42,40,-54177,50851,20053,7,13296,843,-32921,430302,165,-636,2137,9492
7322,390816,17342,-304,-4084,-546,-44,45,-53021,50458,19184,7,13296,846,-32934,430363,165,-636,2139,9492
7333,390827,17370,-300,-4092,-538,-44,47,-51884,50054,18334,7,13295,849,-32946,430420,165,-635,2140,9492
7344,390838,17380,-286,-4078,-537,-43,46,-50765,49639,17504,7,13293,851,-32953,430474,165,-635,2140,9492
7355,390849,17400,-276,-4118,-538,-47,42,-49663,49213,16693,7,13295,851,-32961,430528,165,-635,2140,9492
7366,390860,17334,-254,-4086,-542,-44,44,-48579,48778,15900,7,13294,850,-32964,430579,165,-634,2140,9491
7377,390871,17378,-224,-4028,-538,-44,45,-47513,48332,15126,7,13289,847,-32955,430634,166,-633,2139,9490
7387,390881,17360,-242,-4098,-534,-38,37,-46464,47876,14371,7,13289,844,-32955,430692,165,-633,2138,9490
7398,390892,17350,-260,-4112,-536,-42,49,-45433,47411,13635,7,13290,844,-32961,430752,165,-633,2138,9490
7409,390903,17334,-226,-4126,-539,-50,46,-44417,46937,12917,7,13294,841,-32961,430813,165,-634,2137,9490
7420,390914,17344,-274,-4136,-530,-42,45,-43420,46455,12217,7,13297,842,-32970,430877,165,-635,2137,9490
7431,390925,17354,-276,-4096,-533,-36,44,-42439,45963,11535,7,13297,844,-32978,430942,165,-634,2138,9490
7442,390936,17350,-286,-4062,-536,-34,46,-41474,45464,10871,7,13293,846,-32986,431006,165,-633,2138,9490
7453,390947,17362,-218,-4048,-535,-50,49,-40524,44957,10224,7,13290,842,-32980,431069,165,-632,2137,9489
7463,390958,17338,-262,-4086,-538,-43,38,-39589,44441,9594,7,13290,841,-32985,431130,166,-632,2137,9489
7474,390968,17370,-276,-4116,-541,-45,46,-38676,43924,8985,7,13291,843,-32995,431192,165,-632,2137,9489
7485,390979,17296,-268,-4132,-541,-47,50,-37778,43399,8392,7,13296,843,-33005,431253,165,-633,2137,9490
7496,390990,17340,-260,-4076,-535,-44,45,-36894,42867,7816,7,13295,843,-33009,431317,165,-633,2137,9490
7507,391001,17328,-286,-4138,-531,-39,45,-36025,42328,7256,7,13298,845,-33021,431380,165,-634,2138,9490
7517,391012,17354,-264,-4158,-536,-40,45,-35170,41782,6710,7,13303,845,-33029,431444,166,-635,2138,9490
7528,391022,17326,-300,-4050,-536,-32,49,-34328,41231,6180,7,13299,849,-33038,431510,165,-634,2139,9490
7539,391033,17366,-260,-4162,-540,-39,45,-33498,40674,5665,7,13303,848,-33047,431573,165,-635,2139,9490
7550,391044,17314,-258,-4122,-539,-54,42,-32679,40111,5163,7,13307,847,-33055,431637,165,-636,2139,9491
7561,391055,17316,-240,-4060,-537,-51,45,-31873,39541,4676,7,13305,845,-33056,431702,165,-635,2138,9490
7571,391066,17300,-244,-4172,-541,-47,49,-31079,38967,4203,7,13313,844,-33063,431768,166,-637,2138,9491
7582,391076,17330,-246,-4040,-537,-43,52,-30298,38388,3744,7,13308,843,-33066,431835,165,-636,2137,9491
7593,391087,17328,-240,-4088,-543,-39,46,-29527,37803,3298,7,13307,841,-33070,431902,165,-635,2137,9491
7604,391098,17342,-226,-4110,-532,-35,46,-28768,37213,2866,7,13308,838,-33071,431969,165,-636,2136,9491
7615,391109,17334,-260,-4040,-531,-47,44,-28019,36618,2446,7,13304,838,-33077,432037,165,-634,2136,9491
7625,391119,17382,-270,-4124,-536,-36,47,-27281,36019,2039,7,13305,839,-33084,432103,165,-634,2136,9491
7636,391130,17360,-274,-4144,-543,-40,49,-26552,35416,1644,7,13308,840,-33092,432170,165,-635,2137,9491
7647,391141,17354,-266,-4080,-544,-44,39,-25832,34808,1260,7,13306,840,-33099,432237,165,-635,2137,9491
7658,391152,17356,-278,-4108,-538,-45,41,-25121,34196,889,7,13307,841,-33107,432304,165,-635,2137,9491
7668,391163,17392,-272,-4126,-537,-46,43,-24425,33585,532,7,13309,841,-33114,432371,166,-635,2137,9491
7679,391173,17342,-222,-4090,-539,-51,37,-23737,32969,186,7,13309,837,-33115,432437,165,-635,2136,9491
7690,391184,17370,-250,-4122,-538,-43,47,-23058,32351,-148,7,13310,837,-33120,432504,165,-635,2136,9491
7701,391195,17336,-266,-4056,-541,-43,44,-22382,31724,-475,7,13307,837,-33127,432572,165,-634,2136,9491
7711,391206,17370,-268,-4072,-532,-48,46,-21713,31093,-790,7,13305,838,-33134,432638,166,-633,2136,9491
7722,391216,17346,-326,-4054,-528,-50,43,-21052,30459,-1095,7,13302,843,-33151,432704,165,-632,2138,9491
7733,391227,17350,-290,-4094,-542,-52,49,-20392,29817,-1393,7,13303,846,-33162,432766,165,-632,2139,9492
7744,391238,17380,-294,-4000,-543,-54,55,-19739,29172,-1681,7,13295,849,-33169,432827,165,-629,2140,9491
7755,391249,17382,-270,-4070,-544,-37,47,-19094,28524,-1959,7,13292,849,-33175,432884,165,-628,2140,9491
7766,391260,17316,-254,-4086,-531,-41,49,-18456,27873,-2226,7,13292,849,-33177,432938,165,-628,2139,9491
7777,391271,17364,-220,-4030,-535,-41,48,-17825,27218,-2483,7,13287,845,-33166,432994,165,-626,2138,9489
7787,391282,17354,-236,-4128,-534,-39,50,-17199,26562,-2731,7,13289,843,-33165,433049,166,-627,2137,9489
7798,391292,17340,-224,-4068,-533,-46,43,-16579,25902,-2970,7,13288,840,-33159,433106,165,-626,2136,9488
7809,391303,17360,-244,-4078,-534,-46,41,-15964,25240,-3200,7,13287,838,-33159,433158,165,-626,2135,9488
7820,391314,17386,-256,-4120,-546,-40,50,-15354,24577,-3421,7,13288,838,-33164,433209,165,-626,2135,9488
7831,391325,17364,-286,-4098,-547,-38,47,-14750,23911,-3634,7,13288,840,-33178,433260,165,-626,2136,9488
7842,391336,17402,-294,-4120,-542,-38,41,-14151,23243,-3838,7,13289,842,-33193,433316,165,-626,2137,9489
7853,391347,17344,-254,-4100,-543,-39,52,-13556,22574,-4033,7,13289,842,-33198,433373,165,-627,2136,9489
7864,391358,17350,-286,-4090,-534,-43,41,-12965,21901,-4219,7,13289,843,-33210,433431,165,-626,2137,9489
7874,391369,17348,-264,-4016,-537,-45,47,-12379,21227,-4397,7,13283,844,-33215,433489,166,-624,2137,9489
7885,391379,17320,-280,-4124,-534,-41,40,-11796,20551,-4567,7,13286,845,-33227,433543,165,-625,2138,9489
7896,391390,17300,-232,-4108,-535,-42,44,-11217,19874,-4729,7,13288,842,-33224,433600,165,-626,2137,9489
7907,391401,17374,-260,-4170,-538,-51,44,-10641,19196,-4883,7,13295,842,-33230,433659,165,-627,2137,9489
7918,391412,17352,-294,-4154,-538,-47,38,-10068,18517,-5029,7,13300,844,-33244,433722,165,-628,2138,9489
7929,391423,17350,-290,-4148,-540,-39,41,-9499,17836,-5167,7,13304,846,-33256,433787,165,-630,2139,9490
7940,391434,17314,-274,-4100,-538,-43,45,-8937,17160,-5297,7,13304,846,-33265,433852,165,-630,2139,9490
7950,391445,17310,-212,-4134,-536,-40,43,-8378,16482,-5419,7,13308,842,-33264,433917,169,-631,2138,9490
7961,391455,17314,-312,-4136,-541,-42,38,-7821,15804,-5533,7,13312,846,-33278,433985,165,-632,2139,9490
7972,391466,17382,-266,-4172,-540,-40,41,-7267,15126,-5641,7,13317,845,-33287,434053,165,-633,2139,9490
7983,391477,17358,-296,-4116,-536,-41,50,-6714,14448,-5740,7,13318,848,-33295,434120,165,-633,2140,9490
7994,391488,17336,-260,-4088,-544,-46,38,-6163,13768,-5833,7,13317,847,-33300,434188,165,-633,2140,9490
8004,391499,17332,-270,-4056,-542,-43,42,-5615,13087,-5919,7,13314,847,-33304,434255,165,-632,2140,9489
8015,391509,17368,-234,-4088,-539,-43,42,-5068,12407,-5997,7,13312,845,-33306,434322,165,-631,2139,9489
8026,391520,17356,-270,-4096,-544,-39,47,-4522,11728,-6069,7,13312,845,-33313,434390,165,-631,2139,9489
8037,391531,17348,-266,-4074,-543,-47,46,-3976,11048,-6133,7,13310,845,-33318,434457,165,-630,2139,9489
8047,391542,17334,-264,-4136,-539,-60,43,-3431,10370,-6190,7,13314,845,-33326,434524,166,-631,2139,9489
8058,391552,17316,-284,-4046,-535,-51,46,-2887,9691,-6240,7,13311,847,-33331,434591,165,-630,2140,9489
8069,391563,17358,-220,-4102,-535,-42,47,-2349,9019,-6282,7,13311,844,-33330,434657,165,-630,2139,9489
8080,391574,17340,-210,-4068,-542,-54,52,-1810,8347,-6318,7,13310,840,-33328,434723,165,-629,2137,9489
8090,391585,17338,-216,-4086,-540,-50,49,-1272,7677,-6347,7,13309,836,-33326,434788,166,-628,2136,9488
8101,391595,17380,-250,-4076,-537,-49,45,-733,7008,-6369,7,13308,835,-33331,434850,165,-628,2136,9488
8112,391606,17364,-252,-4134,-535,-52,54,-199,6348,-6384,7,13311,835,-33335,434910,165,-628,2135,9488
8122,391617,17358,-288,-4148,-539,-41,45,334,5690,-6393,7,13314,837,-33344,434971,165,-629,2136,9488
8133,391627,17334,-224,-4092,-535,-39,49,864,5038,-6394,7,13314,835,-33344,435034,165,-629,2135,9488
8143,391638,17346,-300,-4088,-533,-48,46,1395,4390,-6389,7,13313,838,-33357,435095,166,-628,2136,9488
8154,391648,17326,-290,-4136,-533,-38,49,1931,3741,-6377,7,13316,841,-33367,435158,165,-629,2137,9488
8164,391659,17344,-292,-4090,-539,-38,48,2468,3094,-6358,7,13315,844,-33377,435224,165,-629,2138,9488
8175,391669,17374,-262,-4106,-538,-48,51,3006,2452,-6333,7,13315,844,-33383,435290,165,-629,2138,9488
8186,391680,17354,-260,-4124,-541,-42,50,3545,1814,-6301,7,13317,844,-33389,435355,165,-629,2138,9488
8196,391691,17346,-260,-4104,-533,-38,44,4085,1180,-6262,7,13317,844,-33394,435422,166,-629,2138,9488
8207,391701,17326,-326,-4118,-528,-44,47,4626,555,-6216,7,13319,849,-33408,435488,165,-629,2139,9488
8217,391712,17380,-264,-4064,-535,-42,45,5163,-59,-6163,7,13315,849,-33411,435554,165,-628,2139,9488
8228,391722,17358,-260,-4082,-542,-41,49,5700,-667,-6105,7,13313,849,-33415,435619,165,-628,2139,9488
8239,391733,17348,-226,-4090,-544,-44,49,6241,-1272,-6039,7,13313,846,-33414,435683,165,-627,2138,9488
8249,391744,17380,-286,-4056,-543,-42,49,6785,-1871,-5967,7,13309,848,-33423,435748,166,-626,2138,9488
8260,391754,17350,-252,-4032,-538,-39,44,7327,-2462,-5886,7,13303,847,-33424,435811,165,-624,2138,9487
8271,391765,17364,-286,-4136,-540,-39,46,7867,-3043,-5800,7,13305,849,-33437,435871,165,-625,2139,9488
8281,391776,17328,-264,-4132,-539,-43,43,8403,-3615,-5707,7,13309,848,-33444,435933,165,-626,2139,9488
8292,391786,17358,-264,-4206,-533,-45,45,8935,-4180,-5607,7,13317,848,-33453,435997,165,-628,2139,9488
8303,391797,17364,-226,-4136,-543,-45,49,9461,-4734,-5502,7,13320,845,-33455,436064,165,-629,2138,9488
8314,391808,17326,-262,-4102,-546,-45,50,9979,-5280,-5392,7,13320,845,-33462,436131,165,-629,2138,9488
8324,391819,17310,-232,-4154,-534,-43,47,10493,-5821,-5276,7,13325,843,-33464,436199,166,-630,2137,9489
8335,391829,17340,-250,-4096,-542,-47,40,11003,-6361,-5154,7,13325,841,-33470,436268,165,-630,2137,9489
8346,391840,17352,-232,-4088,-539,-51,41,11507,-6896,-5026,7,13325,839,-33473,436337,165,-629,2136,9489
8357,391851,17334,-282,-4084,-537,-48,36,12005,-7428,-4894,7,13324,840,-33482,436405,165,-629,2137,9489
8368,391862,17314,-306,-4162,-534,-45,42,12500,-7958,-4756,7,13329,843,-33492,436473,165,-630,2138,9489
8378,391873,17314,-260,-4086,-539,-43,48,12990,-8485,-4614,7,13328,843,-33498,436543,166,-630,2138,9489
8389,391883,17354,-238,-4086,-535,-37,44,13475,-9012,-4467,7,13326,841,-33501,436613,165,-629,2137,9489
8400,391894,17328,-296,-4018,-538,-39,42,13956,-9537,-4315,7,13319,844,-33511,436682,165,-627,2138,9489
8411,391905,17354,-276,-4044,-536,-42,47,14436,-10061,-4159,7,13314,845,-33518,436748,165,-626,2138,9489
8422,391916,17404,-252,-4128,-539,-36,41,14920,-10589,-3997,7,13315,844,-33522,436814,165,-626,2138,9488
8433,391927,17384,-268,-4204,-534,-43,40,15406,-11116,-3829,7,13322,844,-33530,436881,166,-628,2138,9489
8443,391938,17342,-260,-4112,-537,-45,43,15890,-11642,-3656,7,13323,843,-33536,436949,166,-628,2138,9489
8454,391948,17330,-244,-4098,-544,-42,46,16373,-12167,-3480,7,13323,841,-33540,437018,165,-628,2138,9489
8465,391959,17352,-278,-4154,-544,-52,49,16858,-12690,-3298,7,13328,843,-33549,437087,165,-629,2138,9489
8476,391970,17392,-226,-4098,-546,-43,53,17341,-13214,-3112,7,13327,840,-33552,437157,165,-628,2137,9489
8487,391981,17350,-244,-4120,-542,-48,43,17827,-13737,-2921,7,13328,839,-33556,437226,165,-628,2137,9489
8498,391992,17370,-266,-4110,-540,-39,43,18313,-14259,-2724,7,13328,839,-33563,437296,165,-628,2137,9489
8509,392003,17336,-254,-4086,-537,-39,44,18800,-14779,-2522,7,13327,838,-33568,437365,165,-628,2137,9489
8520,392014,17316,-232,-4110,-537,-40,45,19289,-15299,-2315,7,13327,836,-33570,437434,166,-628,2136,9489
8530,392025,17336,-270,-4054,-540,-42,42,19780,-15818,-2103,7,13323,836,-33580,437502,166,-627,2136,9489
8541,392035,17386,-244,-4110,-538,-46,42,20274,-16336,-1885,7,13324,834,-33584,437570,165,-627,2136,9489
8552,392046,17368,-248,-4060,-545,-44,44,20769,-16853,-1663,7,13320,833,-33590,437638,165,-625,2136,9489
8563,392057,17372,-280,-4036,-549,-47,41,21267,-17369,-1436,7,13314,834,-33604,437703,165,-624,2136,9490
8574,392068,17348,-224,-4036,-538,-40,44,21767,-17884,-1203,7,13309,831,-33604,437767,165,-622,2135,9490
8585,392079,17388,-274,-4062,-542,-50,44,22271,-18397,-965,7,13306,832,-33617,437827,165,-621,2136,9490
8595,392090,17386,-276,-4084,-538,-44,43,22774,-18904,-722,7,13304,833,-33629,437885,165,-620,2136,9491
8606,392100,17348,-252,-4046,-537,-50,47,23280,-19410,-474,7,13301,833,-33634,437940,165,-619,2136,9491
8617,392111,17356,-258,-4080,-536,-46,42,23790,-19914,-220,7,13299,832,-33641,437993,165,-618,2136,9491
8628,392122,17352,-266,-4066,-539,-49,45,24304,-20417,38,7,13298,833,-33650,438046,165,-617,2136,9491
8638,392133,17380,-276,-4104,-540,-46,41,24813,-20910,299,8,13298,834,-33662,438095,169,-617,2137,9492
8649,392143,17340,-304,-4086,-541,-44,47,25329,-21405,567,7,13297,838,-33684,438144,165,-617,2138,9493
8660,392154,17370,-242,-4120,-539,-43,43,25850,-21899,842,7,13299,836,-33684,438186,165,-617,2138,9492
8671,392165,17346,-316,-4106,-532,-53,45,26375,-22390,1123,7,13301,840,-33708,438234,165,-617,2140,9494
8681,392176,17356,-276,-4094,-539,-46,46,26908,-22884,1411,7,13301,842,-33718,438272,166,-617,2140,9494
8692,392186,17336,-274,-4082,-542,-46,43,27446,-23376,1706,7,13300,842,-33728,438308,165,-617,2140,9494
8703,392197,17328,-256,-4094,-544,-40,46,27987,-23865,2006,7,13300,842,-33733,438340,165,-617,2140,9494
8714,392208,17338,-254,-4092,-541,-44,45,28533,-24353,2313,7,13300,841,-33736,438377,165,-616,2140,9494
8725,392219,17314,-286,-4114,-535,-42,48,29084,-24837,2627,7,13302,843,-33751,438416,165,-617,2141,9495
8735,392230,17320,-226,-4110,-534,-45,43,29641,-25320,2948,7,13304,840,-33746,438451,167,-617,2140,9494
8746,392240,17364,-290,-4136,-538,-45,42,30202,-25800,3275,7,13307,842,-33761,438498,165,-618,2141,9495
8757,392251,17362,-256,-4076,-533,-43,44,30769,-26278,3609,7,13305,842,-33763,438540,165,-617,2140,9494
8768,392262,17402,-290,-4088,-545,-48,47,31341,-26754,3949,7,13304,844,-33776,438586,165,-617,2141,9495
8778,392273,17328,-260,-4086,-542,-48,41,31919,-27228,4296,7,13304,843,-33781,438625,165,-616,2141,9494
8789,392283,17346,-238,-4102,-538,-40,43,32501,-27698,4650,7,13304,841,-33780,438666,165,-616,2140,9494
8800,392294,17344,-258,-4074,-532,-52,39,33091,-28166,5012,7,13303,840,-33783,438713,165,-616,2140,9494
8811,392305,17390,-258,-4120,-535,-39,41,33686,-28630,5382,7,13304,839,-33788,438762,165,-616,2140,9494
8822,392316,17380,-224,-4076,-538,-40,49,34286,-29092,5757,7,13301,837,-33783,438813,165,-615,2139,9493
8832,392327,17396,-258,-4100,-534,-39,53,34892,-29550,6140,7,13300,837,-33787,438867,166,-615,2139,9493
8843,392337,17364,-208,-4072,-537,-46,48,35505,-30005,6531,7,13298,833,-33777,438922,165,-614,2137,9492
8854,392348,17354,-290,-4022,-541,-38,45,36124,-30458,6929,7,13292,835,-33796,438977,165,-612,2138,9493
8865,392359,17404,-268,-4064,-542,-41,37,36750,-30907,7335,7,13288,835,-33805,439027,165,-611,2138,9493
8876,392370,17398,-270,-4050,-543,-48,38,37383,-31354,7749,7,13285,835,-33815,439075,165,-610,2139,9493
8886,392381,17346,-270,-4160,-538,-46,39,38024,-31796,8171,7,13291,835,-33825,439117,166,-611,2139,9494
8897,392391,17344,-250,-4160,-534,-37,51,38670,-32233,8601,7,13296,835,-33828,439163,165,-613,2139,9493
8908,392402,17334,-248,-4172,-543,-35,39,39324,-32668,9039,7,13301,833,-33830,439216,165,-615,2138,9493
8919,392413,17400,-262,-4184,-539,-43,47,39985,-33098,9485,7,13307,834,-33837,439275,165,-616,2138,9493
8930,392424,17350,-294,-4118,-532,-39,39,40654,-33524,9941,7,13309,836,-33849,439337,165,-616,2139,9494
8940,392435,17332,-294,-4106,-537,-52,45,41331,-33946,10404,7,13310,839,-33863,439398,166,-616,2140,9494
8951,392445,17344,-302,-4080,-547,-47,49,42019,-34368,10878,7,13309,842,-33877,439457,165,-616,2141,9494
8962,392456,17336,-284,-4082,-542,-35,50,42715,-34784,11361,7,13307,845,-33887,439511,165,-615,2142,9494
8973,392467,17288,-236,-4144,-546,-33,43,43419,-35197,11853,7,13312,842,-33892,439561,165,-617,2141,9494
8984,392478,17364,-260,-4048,-541,-40,44,44131,-35605,12355,7,13307,842,-33894,439617,165,-615,2141,9494
8995,392489,17362,-270,-4078,-539,-37,44,44852,-36008,12866,7,13305,842,-33901,439674,165,-615,2141,9494
9006,392500,17346,-266,-4142,-540,-43,42,45581,-36406,13386,7,13308,842,-33910,439730,165,-616,2142,9494
9017,392511,17312,-284,-4094,-544,-44,45,46319,-36800,13914,8,13309,844,-33921,439786,165,-616,2142,9494
9027,392522,17374,-292,-4102,-535,-51,49,47066,-37187,14452,7,13309,846,-33932,439841,166,-615,2143,9495
9038,392532,17368,-224,-4082,-543,-50,39,47822,-37570,15000,7,13308,843,-33928,439892,165,-615,2142,9494
9049,392543,17390,-250,-4070,-535,-44,50,48585,-37947,15557,7,13305,842,-33929,439950,165,-614,2141,9493
9060,392554,17338,-222,-4092,-534,-44,44,49358,-38318,16124,7,13305,838,-33925,440009,165,-614,2140,9493
9071,392565,17370,-242,-4150,-539,-46,38,50140,-38685,16701,7,13309,836,-33927,440071,165,-615,2140,9493
9082,392576,17360,-256,-4134,-545,-42,39,50931,-39045,17286,7,13312,835,-33933,440136,165,-615,2140,9493
9093,392587,17348,-270,-4120,-536,-41,41,51730,-39399,17882,7,13313,836,-33941,440202,165,-616,2140,9493
9104,392598,17354,-236,-4124,-536,-40,48,52538,-39746,18487,7,13315,834,-33943,440269,165,-616,2139,9493
9114,392609,17384,-260,-4186,-535,-39,46,53356,-40087,19102,7,13321,834,-33949,440337,166,-618,2139,9493
9125,392619,17362,-270,-4074,-542,-35,45,54182,-40422,19726,7,13317,835,-33956,440407,165,-617,2139,9493
9136,392630,17398,-288,-4112,-544,-35,45,55017,-40750,20360,7,13317,837,-33966,440476,165,-617,2140,9493
9147,392641,17332,-258,-4050,-543,-42,45,55861,-41072,21003,7,13313,836,-33971,440544,165,-615,2140,9493
9158,392652,17368,-286,-4080,-545,-43,46,56715,-41387,21656,7,13311,838,-33982,440612,165,-615,2141,9493
9169,392663,17352,-278,-4188,-537,-40,40,57579,-41694,22320,7,13318,839,-33994,440677,165,-616,2141,9493
9180,392674,17356,-248,-4074,-537,-40,47,58451,-41993,22992,7,13315,838,-33996,440744,165,-616,2141,9493
9191,392685,17366,-276,-4092,-534,-40,46,59332,-42286,23675,7,13314,840,-34004,440811,165,-615,2141,9493
9201,392696,17386,-250,-4150,-540,-48,52,60223,-42570,24366,7,13317,839,-34010,440877,166,-616,2141,9493
9212,392706,17352,-226,-4114,-538,-39,44,61122,-42847,25067,7,13318,836,-34011,440944,165,-616,2140,9493
9223,392717,17360,-230,-4092,-534,-34,45,62030,-43116,25778,7,13316,833,-34012,441013,165,-616,2139,9493
9234,392728,17356,-230,-4078,-538,-37,42,62947,-43378,26498,7,13314,831,-34014,441082,165,-615,2138,9493
9245,392739,17362,-320,-4110,-540,-42,48,63873,-43631,27226,7,13314,836,-34030,441150,165,-615,2140,9493
9256,392750,17362,-260,-4070,-537,-41,46,64807,-43875,27964,7,13311,836,-34036,441218,165,-614,2140,9493
9267,392761,17366,-264,-4148,-548,-36,43,65750,-44112,28710,7,13314,836,-34044,441285,165,-615,2140,9493
9278,392772,17348,-292,-4074,-539,-36,50,66700,-44339,29465,7,13312,839,-34054,441353,165,-614,2141,9493
9288,392783,17344,-250,-4100,-532,-40,42,67660,-44557,30229,7,13312,838,-34058,441419,166,-614,2141,9493
9299,392793,17426,-264,-4114,-539,-39,44,68627,-44767,31001,7,13311,838,-34064,441486,165,-614,2141,9493
9310,392804,17356,-260,-4130,-534,-50,52,69603,-44966,31780,7,13314,838,-34070,441552,165,-615,2141,9493
9321,392815,17328,-248,-4088,-533,-44,44,70585,-45157,32568,7,13313,837,-34074,441619,165,-614,2140,9493
9332,392826,17328,-258,-4134,-538,-43,40,71576,-45339,33364,7,13317,836,-34080,441687,169,-615,2140,9493
9343,392837,17338,-256,-4064,-540,-38,38,72573,-45511,34167,7,13313,835,-34085,441756,165,-614,2140,9493
9354,392848,17348,-304,-4022,-536,-44,44,73577,-45674,34977,7,13307,839,-34097,441823,165,-612,2141,9493
9365,392859,17362,-240,-4084,-538,-40,45,74587,-45826,35793,7,13305,837,-34098,441887,165,-612,2141,9493
9375,392870,17376,-268,-4042,-538,-38,46,75603,-45969,36615,7,13300,838,-34104,441951,167,-610,2141,9493
9386,392881,17346,-324,-4132,-535,-40,45,76625,-46102,37443,7,13303,843,-34127,442012,165,-611,2143,9494
9397,392891,17360,-270,-4092,-533,-44,41,77653,-46224,38277,7,13302,843,-34133,442069,165,-610,2143,9494
9408,392902,17364,-260,-4080,-535,-41,54,78684,-46336,39115,7,13301,844,-34137,442127,165,-610,2143,9494
9419,392913,17334,-244,-4098,-535,-40,42,79722,-46437,39960,7,13301,842,-34138,442184,165,-610,2142,9493
9430,392924,17382,-256,-4116,-540,-45,43,80764,-46529,40808,7,13302,841,-34143,442244,165,-610,2142,9493
9441,392935,17302,-248,-4126,-539,-45,52,81809,-46610,41659,7,13306,840,-34148,442305,165,-611,2142,9493
9452,392946,17326,-270,-4116,-552,-49,49,82857,-46681,42514,7,13308,841,-34157,442368,165,-611,2142,9493
9462,392957,17346,-292,-4134,-548,-40,44,83909,-46742,43374,7,13311,843,-34172,442433,166,-612,2143,9494
9473,392968,17406,-264,-4130,-533,-37,45,84964,-46790,44236,7,13312,843,-34178,442496,166,-612,2143,9494
9484,392978,17370,-266,-4120,-538,-38,41,86022,-46829,45100,7,13312,843,-34185,442560,165,-613,2143,9494
9495,392989,17370,-266,-4134,-541,-41,47,87080,-46856,45966,7,13315,844,-34193,442624,165,-613,2143,9494
9506,393000,17368,-272,-4142,-535,-42,43,88141,-46873,46834,7,13318,844,-34202,442688,165,-614,2143,9494
9517,393011,17380,-222,-4154,-539,-41,50,89202,-46878,47701,7,13321,841,-34206,442752,165,-615,2142,9495
9528,393022,17388,-242,-4122,-532,-47,45,90264,-46873,48570,7,13322,840,-34210,442818,165,-615,2142,9495
9539,393033,17362,-290,-4122,-540,-36,49,91325,-46857,49438,7,13323,842,-34219,442886,165,-615,2143,9495
9549,393044,17374,-288,-4054,-533,-44,40,92387,-46829,50307,7,13319,844,-34224,442953,166,-614,2143,9494
9560,393055,17334,-296,-4126,-528,-38,41,93447,-46790,51174,7,13320,846,-34235,443018,166,-614,2144,9494
9571,393065,17386,-274,-4096,-536,-54,48,94506,-46741,52040,7,13320,848,-34240,443082,165,-614,2144,9494
9582,393076,17366,-258,-4114,-533,-39,44,95563,-46681,52903,7,13320,847,-34245,443145,165,-614,2144,9494
9593,393087,17348,-250,-4116,-531,-37,48,96617,-46610,53764,7,13321,846,-34250,443210,165,-614,2144,9494
9604,393098,17404,-222,-4040,-533,-47,52,97669,-46528,54622,7,13315,843,-34246,443275,165,-612,2143,9494
9615,393109,17322,-276,-4164,-538,-40,42,98718,-46436,55477,7,13321,844,-34257,443342,165,-614,2143,9494
9626,393120,17388,-246,-4182,-543,-45,47,99764,-46334,56328,7,13327,843,-34264,443411,165,-615,2143,9495
9637,393131,17354,-250,-4078,-535,-40,40,100805,-46220,57176,7,13324,841,-34267,443480,166,-614,2142,9494
9648,393142,17328,-218,-4070,-547,-33,39,101850,-46095,58026,7,13321,837,-34269,443549,166,-613,2141,9495
9659,393153,17324,-230,-4078,-540,-36,42,102890,-45960,58871,7,13319,834,-34272,443620,166,-613,2141,9495
9669,393164,17382,-276,-4154,-545,-38,39,103926,-45814,59711,7,13322,835,-34279,443691,166,-614,2141,9495
9680,393175,17366,-288,-4158,-536,-38,46,104955,-45657,60544,7,13326,837,-34288,443762,166,-615,2142,9494
9691,393185,17372,-202,-4104,-536,-49,40,105980,-45489,61372,7,13326,832,-34289,443834,165,-614,2140,9495
9702,393196,17342,-302,-4120,-541,-47,40,106999,-45312,62193,7,13327,835,-34299,443906,165,-615,2141,9494
9713,393207,17318,-296,-4074,-544,-49,39,108011,-45124,63007,7,13326,837,-34308,443978,165,-614,2142,9494
9724,393218,17374,-258,-4158,-543,-42,39,109016,-44927,63815,7,13330,836,-34315,444050,165,-615,2142,9494
9735,393229,17312,-264,-4046,-537,-43,46,110013,-44719,64613,7,13325,837,-34320,444121,165,-614,2142,9494
9746,393240,17302,-262,-4068,-539,-44,47,111003,-44502,65405,7,13323,837,-34326,444192,165,-613,2142,9494
9757,393251,17318,-282,-4056,-539,-42,49,111985,-44275,66188,7,13320,839,-34335,444262,165,-612,2143,9494
9768,393262,17372,-226,-4054,-538,-45,54,112959,-44038,66962,7,13316,837,-34333,444331,165,-610,2142,9494
9779,393273,17388,-256,-4130,-541,-45,44,113925,-43792,67729,7,13318,836,-34339,444399,165,-611,2142,9494
9790,393284,17380,-264,-4116,-534,-46,45,114884,-43537,68487,7,13318,836,-34345,444468,165,-611,2142,9494
9801,393295,17400,-240,-4170,-532,-41,49,115833,-43272,69235,7,13323,835,-34348,444538,165,-612,2141,9494
9812,393306,17346,-258,-4118,-534,-42,39,116774,-42998,69976,7,13324,835,-34353,444608,165,-612,2141,9494
9823,393317,17370,-282,-4116,-533,-37,39,117706,-42715,70707,7,13324,836,-34362,444679,165,-612,2142,9494
9834,393328,17374,-250,-4140,-538,-37,47,118629,-42424,71428,7,13326,835,-34367,444751,165,-613,2141,9494
9845,393339,17388,-286,-4122,-530,-45,46,119543,-42123,72140,7,13327,837,-34375,444822,165,-613,2142,9494
9856,393350,17382,-274,-4160,-540,-47,48,120449,-41816,72842,7,13331,838,-34383,444894,165,-614,2142,9494
9867,393361,17374,-272,-4108,-536,-43,45,121345,-41499,73535,7,13331,839,-34390,444967,165,-614,2143,9493
9878,393372,17418,-256,-4094,-538,-41,45,122232,-41175,74219,7,13328,839,-34395,445039,165,-613,2142,9493
9889,393383,17318,-270,-4068,-536,-48,43,123111,-40843,74892,7,13326,839,-34401,445111,165,-612,2143,9493
9900,393394,17344,-214,-4104,-538,-39,42,123979,-40502,75556,7,13326,835,-34400,445181,165,-612,2141,9493
9911,393405,17352,-246,-4066,-537,-36,43,124838,-40155,76210,7,13322,834,-34404,445252,165,-611,2141,9493
9922,393416,17416,-278,-4074,-539,-44,39,125689,-39799,76854,7,13319,835,-34414,445323,165,-610,2141,9493
9933,393427,17330,-258,-4152,-543,-45,42,126530,-39437,77488,7,13324,834,-34420,445391,165,-611,2141,9493
9944,393438,17348,-242,-4046,-542,-41,47,127362,-39068,78112,7,13319,833,-34423,445461,166,-609,2141,9493
9955,393449,17372,-276,-4078,-532,-42,49,128184,-38691,78726,7,13316,834,-34433,445529,166,-609,2141,9493
9965,393460,17356,-264,-4056,-542,-40,51,128997,-38308,79330,7,13312,835,-34440,445596,167,-607,2142,9493
9977,393471,17260,-278,-4054,-540,-49,49,129802,-37918,79924,7,13310,837,-34451,445660,166,-607,2142,9494
9987,393482,17300,-198,-4088,-539,-47,44,130597,-37521,80509,7,13311,831,-34441,445723,166,-607,2140,9493
9998,393492,17364,-232,-4130,-548,-47,45,131383,-37119,81084,7,13313,829,-34441,445786,165,-607,2139,9492
10009,393503,17390,-254,-4068,-540,-47,42,132161,-36709,81649,7,13310,828,-34448,445848,165,-606,2139,9492
10020,393514,17310,-286,-4146,-540,-48,42,132930,-36293,82205,7,13316,830,-34459,445908,165,-607,2140,9493
10031,393525,17370,-242,-4114,-541,-41,42,133690,-35872,82751,7,13316,829,-34462,445974,169,-607,2140,9492
10042,393536,17324,-256,-4106,-533,-50,41,134441,-35443,83287,7,13318,828,-34467,446038,165,-607,2140,9492
10053,393547,17342,-246,-4084,-531,-54,41,135184,-35009,83814,7,13317,827,-34471,446103,165,-607,2139,9492
10064,393558,17316,-272,-4114,-531,-41,45,135917,-34570,84330,7,13319,828,-34479,446166,165,-607,2140,9492
10075,393569,17358,-270,-4174,-541,-42,44,136643,-34125,84839,7,13324,829,-34486,446232,165,-609,2140,9492
10086,393580,17384,-272,-4102,-536,-46,48,137360,-33675,85337,7,13324,830,-34495,446301,165,-608,2140,9492
10097,393591,17340,-288,-4066,-531,-41,48,138068,-33220,85826,7,13321,833,-34506,446370,165,-607,2141,9493
10108,393602,17344,-306,-4146,-534,-43,46,138769,-32760,86306,7,13324,837,-34521,446438,165,-608,2142,9493
10119,393613,17324,-290,-4056,-535,-40,43,139462,-32294,86778,7,13320,840,-34530,446507,165,-607,2143,9493
10130,393624,17362,-258,-4080,-534,-47,45,140147,-31824,87240,7,13319,839,-34534,446574,165,-606,2143,9493
10141,393635,17358,-240,-4102,-531,-44,41,140825,-31348,87694,7,13319,837,-34534,446640,165,-606,2142,9492
10152,393646,17366,-258,-4130,-537,-39,43,141494,-30868,88140,7,13320,837,-34540,446707,165,-607,2142,9493
10163,393657,17344,-268,-4126,-538,-33,42,142156,-30384,88577,7,13322,837,-34548,446775,165,-607,2143,9493
10174,393668,17332,-264,-4206,-547,-45,42,142812,-29896,89006,7,13330,837,-34560,446844,165,-609,2143,9493
10185,393679,17404,-282,-4064,-539,-46,45,143461,-29403,89427,7,13326,838,-34566,446915,165,-608,2143,9493
10196,393690,17344,-278,-4046,-541,-41,48,144102,-28906,89839,7,13322,840,-34572,446985,165,-607,2144,9493
10207,393701,17382,-300,-4150,-537,-38,45,144736,-28405,90243,7,13324,843,-34587,447053,165,-607,2145,9493
10218,393712,17364,-266,-4104,-545,-32,45,145363,-27900,90640,7,13323,843,-34593,447119,165,-607,2145,9493
10229,393723,17356,-234,-4138,-541,-41,38,145984,-27391,91028,7,13326,840,-34597,447186,165,-608,2144,9493
10240,393734,17412,-222,-4106,-538,-46,46,146599,-26878,91409,7,13325,837,-34596,447255,166,-607,2143,9493
10251,393745,17328,-266,-4108,-541,-47,43,147207,-26361,91782,7,13326,837,-34604,447325,166,-607,2143,9493
10261,393756,17310,-256,-4062,-542,-47,43,147810,-25841,92147,7,13324,836,-34608,447394,166,-607,2143,9493
10272,393767,17344,-220,-4068,-537,-42,43,148406,-25317,92505,7,13321,833,-34605,447463,166,-606,2142,9492
10283,393778,17382,-254,-4094,-536,-46,46,148996,-24789,92855,7,13320,832,-34610,447532,166,-605,2142,9492
10294,393788,17348,-262,-4112,-532,-38,45,149580,-24258,93197,7,13320,833,-34616,447599,165,-605,2142,9492
10305,393799,17366,-248,-4044,-539,-43,48,150159,-23725,93533,7,13315,832,-34620,447667,165,-604,2141,9492
10316,393810,17372,-296,-4082,-532,-39,45,150731,-23187,93862,7,13313,835,-34634,447731,165,-603,2143,9493
10327,393821,17376,-252,-4130,-534,-44,39,151299,-22646,94183,7,13315,834,-34638,447796,165,-603,2142,9492
10338,393832,17340,-296,-4076,-542,-51,39,151863,-22102,94499,7,13314,836,-34653,447861,165,-603,2143,9493
10349,393843,17358,-220,-4096,-544,-42,43,152420,-21556,94808,7,13313,833,-34649,447924,165,-603,2142,9492
10360,393854,17352,-262,-4108,-538,-38,45,152972,-21007,95109,7,13313,833,-34655,447989,165,-603,2142,9492
10371,393865,17312,-306,-4068,-533,-51,53,153520,-20455,95403,7,13312,838,-34673,448053,165,-602,2144,9493
10382,393876,17306,-266,-4102,-539,-43,40,154063,-19899,95692,7,13313,838,-34681,448114,165,-602,2144,9493
10393,393887,17356,-274,-4094,-535,-39,39,154600,-19341,95974,7,13312,838,-34690,448177,165,-602,2144,9493
10404,393898,17374,-254,-4116,-540,-39,39,155134,-18781,96250,7,13312,837,-34694,448239,165,-602,2144,9493
10415,393909,17354,-228,-4134,-526,-41,43,155663,-18217,96518,7,13315,834,-34693,448302,165,-602,2143,9493
10426,393920,17336,-248,-4126,-541,-39,40,156187,-17651,96782,7,13317,833,-34697,448368,165,-603,2143,9493
10437,393931,17376,-296,-4108,-539,-44,47,156708,-17084,97039,7,13317,836,-34710,448435,165,-603,2144,9493
10448,393942,17384,-330,-4098,-547,-44,42,157226,-16513,97291,7,13316,841,-34731,448502,165,-602,2146,9494
10459,393953,17308,-238,-4144,-539,-44,44,157739,-15941,97536,7,13321,839,-34736,448563,165,-604,2145,9494
10470,393964,17340,-222,-4110,-544,-51,43,158249,-15366,97776,7,13322,835,-34735,448627,165,-604,2144,9494
10481,393975,17346,-266,-4106,-541,-42,42,158754,-14789,98010,7,13323,835,-34742,448695,165,-604,2144,9494
10492,393986,17342,-298,-4142,-532,-41,38,159256,-14209,98238,7,13326,838,-34756,448762,165,-604,2145,9494
10503,393997,17340,-260,-4148,-537,-50,42,159755,-13628,98460,7,13330,838,-34764,448828,165,-605,2145,9495
10514,394008,17334,-252,-4018,-544,-45,44,160250,-13044,98677,7,13323,837,-34764,448894,165,-603,2145,9494
10525,394019,17328,-250,-4066,-542,-56,42,160744,-12459,98888,7,13322,835,-34767,448960,165,-602,2145,9493
10536,394030,17402,-272,-4048,-535,-41,36,161233,-11871,99094,7,13316,836,-34771,449027,167,-601,2145,9493
10547,394041,17368,-260,-4066,-535,-37,44,161718,-11282,99294,7,13312,836,-34775,449091,166,-600,2145,9493
10557,394052,17376,-292,-4080,-537,-43,41,162201,-10691,99488,7,13310,838,-34787,449154,166,-599,2145,9493
10568,394063,17350,-262,-4136,-533,-47,44,162682,-10098,99677,7,13314,838,-34795,449213,166,-600,2146,9493
10579,394074,17326,-316,-4076,-539,-41,40,163159,-9503,99862,7,13312,842,-34814,449274,166,-599,2147,9494
10590,394084,17346,-290,-4098,-541,-41,44,163631,-8911,100040,7,13312,844,-34828,449327,165,-599,2148,9495
10601,394095,17406,-284,-4056,-535,-45,41,164104,-8313,100213,7,13307,846,-34832,449377,165,-598,2148,9494
10612,394106,17374,-250,-4000,-538,-46,47,164574,-7714,100382,7,13299,845,-34820,449425,165,-595,2147,9492
10623,394117,17352,-220,-4102,-535,-49,49,165043,-7113,100545,7,13300,841,-34810,449475,165,-595,2146,9491
10634,394128,17322,-274,-4122,-543,-47,49,165509,-6511,100704,7,13303,843,-34824,449529,165,-596,2147,9491
10645,394139,17346,-264,-4060,-535,-54,49,165974,-5908,100858,7,13301,843,-34826,449585,165,-595,2146,9491
10656,394150,17340,-274,-4080,-543,-42,48,166436,-5303,101007,7,13300,844,-34835,449639,165,-594,2147,9491
10667,394161,17332,-230,-4114,-541,-39,46,166896,-4696,101150,7,13301,841,-34831,449692,165,-595,2146,9490
10678,394172,17342,-278,-4066,-532,-38,40,167355,-4088,101289,7,13299,842,-34840,449747,165,-594,2146,9490
10689,394183,17338,-228,-4082,-531,-42,40,167811,-3478,101422,7,13298,839,-34832,449801,165,-594,2145,9489
10700,394194,17296,-234,-4096,-536,-38,48,168266,-2868,101551,7,13298,837,-34829,449852,165,-594,2144,9489
10711,394205,17374,-242,-4048,-540,-44,51,168721,-2257,101676,7,13294,836,-34827,449903,165,-593,2144,9488
10722,394216,17412,-254,-4058,-542,-45,41,169174,-1643,101796,7,13290,835,-34829,449948,165,-591,2143,9487
10733,394227,17410,-260,-4098,-534,-45,45,169625,-1029,101910,7,13290,835,-34835,449988,169,-591,2143,9487
10744,394238,17370,-266,-4162,-539,-45,43,170076,-413,102020,7,13295,835,-34844,450027,165,-592,2143,9488
10754,394249,17354,-268,-4110,-538,-39,41,170522,197,102125,7,13296,835,-34853,450072,165,-593,2144,9488
10765,394260,17376,-284,-4096,-540,-43,47,170963,805,102224,7,13296,837,-34867,450121,167,-592,2144,9488
10776,394270,17340,-232,-4082,-542,-46,44,171404,1413,102318,7,13295,835,-34863,450173,165,-592,2143,9488
10787,394281,17332,-290,-4154,-538,-47,43,171848,2027,102409,7,13301,837,-34880,450220,165,-593,2145,9489
10798,394292,17392,-286,-4144,-540,-48,44,172291,2643,102495,7,13304,839,-34895,450279,165,-594,2145,9489
10809,394303,17364,-256,-4172,-535,-40,45,172733,3259,102576,7,13309,838,-34903,450340,165,-595,2145,9490
10820,394314,17322,-248,-4124,-537,-42,44,173175,3876,102653,7,13312,837,-34907,450406,165,-596,2145,9490
10831,394325,17316,-256,-4122,-538,-42,45,173617,4493,102725,7,13314,837,-34913,450472,165,-597,2145,9490
10841,394336,17350,-270,-4060,-543,-39,38,174058,5112,102793,7,13311,837,-34920,450540,166,-595,2145,9490
10852,394347,17330,-264,-4090,-542,-47,44,174500,5731,102856,7,13311,837,-34926,450607,165,-595,2145,9490
10863,394357,17324,-240,-4068,-538,-40,44,174941,6351,102914,7,13308,835,-34927,450673,165,-595,2145,9489
10874,394368,17362,-260,-4102,-540,-39,46,175382,6971,102967,7,13308,835,-34933,450737,165,-594,2144,9489
10885,394379,17370,-268,-4092,-533,-41,49,175824,7592,103016,7,13307,836,-34940,450802,165,-594,2145,9489
10896,394390,17416,-272,-4072,-538,-40,51,176266,8213,103060,7,13303,837,-34947,450867,165,-593,2145,9489
10907,394401,17340,-280,-4064,-541,-33,47,176707,8835,103099,7,13300,839,-34957,450929,165,-592,2145,9489
10918,394412,17334,-298,-4058,-542,-38,44,177150,9458,103134,7,13297,842,-34972,450991,165,-591,2147,9490
10928,394423,17284,-278,-4112,-541,-36,43,177593,10082,103165,7,13299,843,-34986,451049,166,-592,2147,9490
10939,394434,17350,-212,-4110,-545,-37,44,178040,10710,103190,7,13300,839,-34979,451110,166,-592,2146,9490
10950,394445,17324,-292,-4164,-540,-43,44,178488,11339,103211,7,13306,841,-34997,451173,166,-594,2147,9491
10961,394456,17356,-212,-4136,-541,-45,43,178938,11969,103227,7,13309,837,-34995,451240,166,-594,2145,9490
10972,394466,17362,-254,-4104,-534,-44,47,179389,12598,103237,7,13309,836,-34999,451309,165,-594,2145,9490
10983,394477,17288,-212,-4138,-532,-42,43,179841,13229,103242,7,13314,832,-34996,451378,165,-595,2144,9490
10994,394488,17328,-232,-4124,-540,-37,49,-179705,13859,103243,7,13316,830,-34998,451448,165,-596,2143,9490
11005,394499,17344,-296,-4078,-541,-37,49,-179247,14494,103239,7,13313,833,-35011,451519,165,-595,2144,9490
11016,394511,17340,-286,-4022,-540,-49,46,-178787,15129,103229,7,13307,836,-35021,451591,166,-593,2145,9490
11028,394522,17362,-280,-4120,-551,-55,45,-178324,15765,103215,7,13310,837,-35033,451660,166,-594,2145,9490
11039,394533,17326,-258,-4092,-533,-52,44,-177860,16401,103194,7,13311,837,-35038,451730,166,-594,2145,9490
11050,394544,17330,-242,-4102,-543,-43,43,-177394,17038,103169,7,13311,835,-35041,451799,166,-594,2145,9490
11061,394555,17312,-222,-4074,-542,-48,43,-176926,17674,103138,7,13310,831,-35039,451869,165,-593,2144,9490
11072,394566,17320,-294,-4026,-538,-44,43,-176456,18310,103101,7,13305,834,-35054,451937,165,-591,2145,9490
11083,394577,17364,-236,-4136,-534,-43,51,-175984,18946,103058,7,13307,833,-35054,452004,165,-592,2144,9490
11094,394588,17324,-308,-4114,-543,-45,46,-175509,19582,103010,7,13309,837,-35072,452071,165,-592,2146,9490
11105,394599,17352,-300,-4106,-537,-41,48,-175032,20217,102956,7,13310,840,-35086,452140,165,-592,2147,9491
11116,394610,17368,-262,-4080,-541,-45,45,-174551,20853,102897,7,13308,840,-35091,452208,165,-592,2147,9491
11127,394621,17376,-280,-4092,-537,-44,41,-174068,21488,102831,7,13307,841,-35100,452275,165,-591,2147,9491
11138,394632,17340,-258,-4114,-535,-40,39,-173582,22124,102759,7,13308,841,-35106,452340,165,-592,2147,9491
11149,394643,17350,-252,-4058,-538,-40,42,-173092,22759,102681,7,13305,839,-35107,452407,165,-591,2147,9490
11160,394654,17352,-214,-4060,-535,-46,45,-172598,23393,102597,7,13302,835,-35099,452473,165,-590,2145,9489
11171,394665,17382,-272,-4078,-536,-34,44,-172102,24027,102506,7,13299,836,-35108,452538,165,-589,2145,9489
11182,394676,17352,-238,-4184,-539,-43,43,-171602,24661,102409,7,13306,834,-35110,452602,165,-591,2145,9489
11193,394687,17352,-266,-4108,-540,-46,43,-171097,25294,102306,7,13307,834,-35118,452669,165,-591,2145,9489
11204,394698,17370,-288,-4086,-536,-50,44,-170587,25927,102195,7,13306,837,-35129,452738,165,-590,2146,9490
11215,394709,17342,-270,-4074,-534,-35,45,-170075,26558,102078,7,13304,837,-35136,452806,165,-590,2146,9490
11226,394720,17322,-240,-4062,-536,-46,41,-169556,27190,101953,7,13302,835,-35136,452872,165,-589,2145,9489
11237,394732,17358,-232,-4056,-535,-45,46,-169034,27820,101822,7,13298,833,-35133,452937,166,-588,2145,9489
11248,394743,17390,-268,-4116,-535,-47,44,-168506,28449,101683,7,13300,834,-35141,453000,166,-588,2145,9489
11260,394754,17336,-276,-4112,-538,-44,43,-167973,29078,101537,7,13301,835,-35152,453063,166,-588,2145,9489
11271,394765,17372,-270,-4066,-535,-43,44,-167435,29706,101383,7,13298,836,-35160,453128,166,-587,2146,9489
11282,394776,17348,-266,-4118,-540,-41,41,-166892,30333,101222,7,13300,836,-35168,453191,165,-588,2146,9489
11293,394787,17338,-248,-4098,-537,-44,42,-166342,30959,101052,7,13301,834,-35171,453256,165,-588,2145,9489
11304,394798,17344,-282,-4040,-536,-39,47,-165787,31583,100874,7,13296,836,-35182,453321,165,-586,2146,9489
11315,394809,17368,-264,-4130,-540,-49,41,-165225,32206,100689,7,13299,836,-35190,453384,165,-587,2146,9489
11326,394820,17382,-294,-4134,-541,-43,53,-164657,32828,100495,7,13301,839,-35206,453449,165,-587,2147,9490
11337,394831,17358,-266,-4088,-536,-44,49,-164082,33448,100291,7,13300,840,-35212,453513,165,-587,2147,9490
11348,394842,17368,-264,-4148,-538,-41,40,-163500,34067,100079,7,13304,840,-35221,453578,165,-588,2147,9490
11359,394853,17346,-278,-4172,-540,-42,47,-162910,34684,99858,7,13310,841,-35235,453644,165,-589,2148,9491
11370,394864,17356,-306,-4166,-541,-38,49,-162319,35295,99629,7,13315,845,-35253,453710,165,-591,2149,9492
11381,394875,17352,-306,-4100,-531,-34,48,-161719,35904,99390,7,13314,849,-35264,453771,165,-591,2150,9492
11392,394886,17346,-280,-4098,-535,-41,50,-161111,36511,99141,7,13314,851,-35271,453829,165,-590,2151,9492
11403,394897,17360,-258,-4098,-540,-48,47,-160494,37117,98883,7,13314,850,-35275,453887,165,-590,2150,9492
11414,394908,17332,-258,-4112,-540,-43,45,-159868,37721,98614,7,13315,850,-35282,453946,165,-590,2150,9492
11425,394919,17366,-228,-4120,-538,-39,47,-159234,38322,98335,7,13316,847,-35284,454007,165,-591,2149,9492
11436,394930,17394,-290,-4088,-538,-42,52,-158591,38921,98045,7,13314,849,-35291,454072,169,-590,2150,9492
11447,394941,17326,-264,-4110,-538,-46,42,-157936,39519,97743,7,13316,849,-35298,454135,165,-590,2150,9492
11458,394952,17368,-254,-4112,-539,-51,46,-157272,40113,97429,7,13317,848,-35303,454199,165,-590,2150,9492
11469,394963,17374,-272,-4182,-540,-42,38,-156598,40706,97104,7,13323,848,-35316,454264,165,-592,2150,9492
11480,394974,17382,-276,-4108,-539,-51,40,-155912,41296,96766,7,13323,848,-35322,454328,165,-592,2150,9492
11490,394985,17338,-252,-4132,-538,-45,42,-155216,41882,96416,7,13326,847,-35329,454391,166,-592,2150,9493
11501,394996,17302,-274,-4078,-532,-42,40,-154507,42466,96052,7,13324,848,-35334,454455,166,-592,2150,9492
11512,395007,17374,-206,-4074,-540,-40,46,-153787,43047,95676,7,13321,843,-35331,454520,166,-591,2149,9492
11523,395018,17336,-244,-4056,-551,-40,44,-153056,43625,95287,7,13318,841,-35334,454589,166,-590,2148,9492
11534,395028,17364,-242,-4122,-546,-40,47,-152312,44199,94883,7,13319,839,-35338,454659,165,-590,2148,9492
11545,395039,17388,-276,-4090,-537,-38,50,-151553,44768,94465,7,13317,841,-35346,454730,165,-589,2148,9492
11556,395050,17336,-270,-4106,-535,-36,48,-150781,45335,94030,7,13317,842,-35353,454800,165,-589,2148,9492
11567,395061,17354,-260,-4112,-528,-31,50,-149994,45897,93580,7,13316,842,-35358,454871,165,-589,2148,9492
11578,395072,17334,-264,-4058,-541,-43,46,-149193,46456,93115,7,13313,842,-35363,454941,165,-588,2148,9492
11589,395083,17338,-272,-4126,-532,-44,42,-148375,47010,92632,7,13316,843,-35371,455011,165,-589,2149,9492
11600,395094,17324,-234,-4120,-534,-49,51,-147542,47559,92134,7,13318,841,-35374,455080,165,-589,2148,9492
11611,395105,17382,-290,-4072,-539,-48,43,-146692,48104,91618,7,13316,843,-35383,455152,165,-588,2149,9492
11622,395116,17324,-258,-4098,-541,-44,44,-145826,48644,91084,7,13316,842,-35388,455222,165,-588,2148,9492
11633,395127,17344,-272,-4100,-549,-47,42,-144943,49180,90533,7,13316,843,-35397,455292,165,-588,2149,9492
11644,395138,17356,-240,-4104,-543,-49,40,-144040,49710,89962,7,13317,840,-35399,455362,165,-588,2148,9492
11655,395149,17358,-232,-4132,-537,-46,44,-143120,50234,89371,7,13319,838,-35401,455433,165,-589,2147,9491
11666,395160,17350,-260,-4138,-540,-49,44,-142180,50752,88761,7,13323,837,-35407,455506,165,-589,2147,9491
11677,395171,17324,-256,-4094,-542,-41,45,-141222,51264,88130,7,13322,837,-35413,455579,165,-589,2147,9491
11688,395182,17352,-240,-4078,-547,-39,48,-140243,51769,87479,7,13320,835,-35417,455652,165,-588,2147,9491
11699,395193,17404,-296,-4076,-531,-38,37,-139242,52268,86804,7,13317,838,-35428,455725,165,-588,2148,9492
11710,395204,17346,-246,-4036,-537,-43,42,-138220,52759,86107,7,13311,836,-35431,455796,165,-586,2147,9491
11721,395215,17350,-256,-4052,-538,-48,42,-137176,53243,85388,7,13308,835,-35436,455865,165,-585,2147,9491
11732,395226,17312,-244,-4138,-540,-43,39,-136109,53720,84646,7,13312,833,-35438,455931,165,-586,2147,9491
11743,395237,17372,-276,-4082,-543,-35,43,-135020,54188,83880,7,13309,834,-35449,456000,165,-585,2147,9491
11754,395248,17356,-260,-4108,-546,-49,45,-133907,54648,83091,7,13310,834,-35455,456068,165,-585,2147,9491
11765,395259,17328,-266,-4066,-543,-48,47,-132770,55099,82277,7,13308,835,-35464,456136,165,-584,2147,9491
11776,395270,17322,-266,-4128,-544,-41,51,-131609,55541,81438,7,13311,836,-35472,456202,167,-585,2147,9492
11786,395281,17402,-264,-4084,-538,-49,49,-130421,55973,80572,7,13310,836,-35479,456272,166,-584,2147,9492
11797,395292,17326,-268,-4106,-543,-49,45,-129208,56395,79680,7,13311,837,-35487,456339,166,-584,2148,9492
11808,395303,17368,-242,-4090,-536,-43,46,-127969,56807,78762,7,13310,835,-35489,456407,166,-584,2147,9491
11819,395314,17330,-238,-4146,-544,-36,41,-126704,57208,77817,7,13314,833,-35490,456474,166,-585,2147,9491
11830,395325,17304,-242,-4068,-534,-48,45,-125412,57597,76845,7,13312,831,-35493,456544,166,-584,2146,9491
11841,395335,17342,-292,-4118,-533,-44,42,-124092,57974,75845,7,13314,834,-35505,456612,165,-585,2147,9491
11852,395346,17324,-246,-4044,-540,-41,47,-122747,58340,74819,7,13309,833,-35509,456682,165,-583,2147,9491
11863,395357,17312,-300,-4112,-545,-47,42,-121374,58693,73765,7,13312,836,-35525,456749,165,-584,2148,9492
11874,395368,17324,-292,-4096,-548,-51,53,-119976,59033,72686,7,13312,839,-35540,456817,165,-584,2149,9492
11885,395379,17320,-278,-4084,-544,-46,42,-118549,59360,71578,7,13312,840,-35549,456883,165,-583,2149,9492
11896,395390,17364,-286,-4080,-532,-40,47,-117095,59671,70442,7,13310,842,-35559,456948,165,-583,2150,9492
11907,395401,17382,-242,-4120,-534,-46,43,-115616,59968,69280,7,13311,841,-35561,457011,165,-583,2149,9492
11918,395412,17342,-248,-4086,-536,-35,45,-114111,60250,68093,7,13309,840,-35563,457076,165,-583,2149,9492
11929,395423,17388,-244,-4172,-543,-46,47,-112582,60517,66881,7,13315,838,-35567,457143,165,-584,2148,9492
11940,395434,17370,-296,-4126,-542,-41,48,-111028,60768,65645,7,13316,841,-35581,457212,165,-584,2149,9492
11951,395445,17350,-284,-4068,-542,-39,46,-109451,61002,64385,7,13313,843,-35589,457280,165,-583,2150,9492
11962,395456,17322,-272,-4070,-536,-39,45,-107850,61219,63101,7,13311,844,-35596,457346,165,-583,2150,9492
11973,395467,17336,-282,-4092,-532,-43,41,-106227,61419,61795,7,13310,845,-35605,457410,165,-582,2151,9492
11984,395478,17358,-278,-4134,-534,-43,47,-104585,61601,60470,7,13313,846,-35616,457474,165,-583,2151,9493
11995,395489,17380,-272,-4122,-535,-44,41,-102923,61765,59126,7,13314,847,-35624,457536,165,-583,2151,9493
12006,395500,17348,-246,-4064,-530,-44,46,-101245,61910,57765,7,13311,845,-35623,457598,165,-582,2151,9492
12017,395511,17394,-250,-4122,-528,-45,47,-99552,62035,56389,7,13313,845,-35625,457663,165,-582,2150,9492
12028,395522,17358,-246,-4136,-543,-47,53,-97859,62143,55012,7,13316,844,-35630,457728,165,-583,2150,9492
12038,395533,17324,-256,-4070,-544,-43,42,-96153,62231,53621,7,13314,843,-35634,457796,166,-582,2150,9492
12049,395544,17364,-252,-4122,-538,-37,47,-94439,62300,52222,7,13314,842,-35638,457864,166,-583,2149,9492
12060,395554,17380,-254,-4120,-539,-48,43,-92716,62349,50815,7,13316,841,-35643,457933,165,-583,2149,9492
12071,395565,17330,-274,-4054,-540,-50,47,-90988,62379,49403,7,13313,842,-35650,458003,165,-582,2150,9492
12082,395576,17378,-278,-4114,-535,-48,42,-89255,62388,47987,7,13314,843,-35659,458071,165,-582,2150,9492
12093,395587,17390,-276,-4110,-538,-49,43,-87522,62378,46571,7,13314,844,-35668,458138,165,-581,2150,9492
12104,395598,17384,-292,-4138,-536,-39,47,-85792,62348,45156,7,13316,846,-35681,458206,165,-582,2151,9493
12115,395609,17332,-308,-4080,-540,-37,48,-84064,62299,43745,7,13314,850,-35694,458271,165,-581,2152,9493
12125,395620,17352,-264,-4144,-543,-39,42,-82341,62231,42339,7,13318,850,-35704,458332,167,-582,2152,9493
12136,395631,17366,-288,-4076,-542,-46,49,-80625,62142,40941,7,13315,852,-35711,458393,169,-582,2153,9493
12147,395641,17362,-256,-4130,-539,-40,44,-78918,62034,39552,7,13317,851,-35717,458453,165,-582,2153,9493
12158,395652,17302,-290,-4072,-544,-41,41,-77222,61907,38174,7,13316,853,-35726,458513,165,-581,2153,9493
12169,395663,17332,-260,-4094,-543,-47,48,-75540,61761,36812,7,13316,853,-35731,458571,165,-581,2153,9493
12180,395674,17334,-286,-4084,-538,-36,46,-73874,61596,35465,7,13314,854,-35739,458632,165,-581,2154,9493
12191,395685,17350,-264,-4120,-540,-42,39,-72223,61413,34134,7,13315,854,-35746,458690,165,-581,2154,9493
12202,395696,17360,-250,-4098,-540,-38,51,-70592,61211,32824,7,13315,853,-35749,458750,165,-581,2153,9493
12212,395707,17346,-252,-4108,-541,-40,47,-68980,60992,31533,8,13315,852,-35753,458813,165,-581,2153,9493
12223,395718,17352,-212,-4078,-542,-37,45,-67389,60755,30263,7,13313,847,-35746,458877,166,-580,2151,9492
12234,395728,17336,-240,-4056,-538,-42,47,-65819,60501,29016,7,13309,845,-35745,458945,165,-579,2151,9491
12245,395739,17354,-258,-4124,-536,-35,41,-64273,60230,27792,7,13310,844,-35751,459013,165,-580,2150,9491
12256,395750,17296,-306,-4068,-539,-38,44,-62749,59944,26593,7,13308,848,-35766,459082,165,-579,2152,9492
12267,395761,17372,-270,-4094,-541,-42,47,-61251,59641,25419,7,13308,849,-35773,459149,165,-579,2152,9492
12278,395772,17344,-260,-4076,-537,-43,42,-59776,59323,24270,7,13306,848,-35776,459215,165,-578,2152,9491
12289,395783,17362,-292,-4122,-544,-45,42,-58327,58990,23148,7,13308,850,-35790,459281,165,-579,2152,9492
12299,395794,17356,-244,-4096,-539,-43,43,-56904,58643,22052,7,13307,848,-35791,459346,165,-578,2152,9492
12310,395805,17338,-286,-4130,-533,-43,45,-55508,58281,20984,7,13310,850,-35803,459412,166,-579,2152,9492
12321,395815,17346,-264,-4104,-528,-43,43,-54137,57905,19943,7,13311,850,-35808,459478,165,-579,2152,9492
12332,395826,17368,-242,-4086,-532,-46,47,-52794,57517,18930,7,13309,848,-35808,459545,165,-578,2152,9492
12343,395837,17360,-270,-4116,-535,-36,37,-51475,57116,17942,7,13310,848,-35815,459613,165,-579,2152,9492
12354,395848,17328,-268,-4078,-539,-44,42,-50182,56702,16981,7,13309,848,-35821,459681,165,-578,2152,9492
12365,395859,17340,-278,-4112,-543,-48,45,-48914,56278,16047,7,13310,849,-35831,459749,165,-578,2152,9492
12376,395870,17392,-292,-4068,-537,-49,46,-47673,55841,15141,7,13308,851,-35840,459816,165,-577,2153,9492
12386,395881,17362,-252,-4128,-537,-50,42,-46456,55394,14260,7,13310,850,-35844,459881,165,-578,2153,9492
12397,395892,17306,-248,-4044,-542,-47,43,-45263,54936,13404,7,13307,848,-35843,459947,166,-577,2152,9491
12408,395902,17352,-292,-4108,-534,-44,40,-44096,54467,12575,7,13308,850,-35856,460014,165,-577,2153,9492
12419,395913,17360,-244,-4102,-536,-44,46,-42953,53989,11771,7,13308,848,-35857,460079,165,-577,2152,9491
12430,395924,17348,-276,-4084,-533,-41,44,-41833,53501,10992,7,13307,849,-35864,460145,165,-576,2153,9491
12441,395935,17342,-258,-4148,-539,-46,51,-40736,53005,10238,7,13311,849,-35872,460211,165,-577,2153,9492
12452,395946,17314,-272,-4148,-542,-46,44,-39661,52499,9506,7,13316,850,-35883,460279,165,-578,2153,9492
12462,395957,17372,-272,-4080,-541,-34,48,-38617,51990,8803,7,13313,850,-35888,460347,165,-578,2153,9492
12473,395968,17342,-294,-4112,-543,-44,51,-37593,51473,8123,7,13314,853,-35901,460415,166,-578,2154,9492
12484,395978,17326,-232,-4118,-536,-42,39,-36589,50946,7464,7,13316,850,-35902,460481,165,-578,2153,9492
12495,395989,17400,-284,-4110,-540,-40,50,-35607,50414,6827,7,13316,852,-35911,460551,165,-578,2153,9492
12506,396000,17352,-250,-4126,-539,-46,54,-34643,49875,6211,7,13318,851,-35916,460619,165,-578,2153,9492
12516,396011,17350,-236,-4124,-544,-41,49,-33697,49328,5615,7,13319,849,-35918,460689,165,-579,2152,9492
12527,396022,17362,-272,-4142,-540,-39,47,-32770,48775,5038,7,13322,849,-35927,460761,166,-579,2153,9492
12538,396032,17350,-230,-4076,-538,-51,46,-31859,48215,4482,7,13320,847,-35927,460833,165,-579,2152,9492
12549,396043,17340,-208,-4092,-546,-32,45,-30967,47649,3943,7,13319,842,-35926,460905,165,-578,2150,9492
