t_center_ms,fs_hz,angle_src,mav0,mav1,mav2,mav3,mav4,mav5,mav6,mav7,rms0,rms1,rms2,rms3,rms4,rms5,rms6,rms7,zc0,zc1,zc2,zc3,zc4,zc5,zc6,zc7,wl0,wl1,wl2,wl3,wl4,wl5,wl6,wl7,env_mean0,env_mean1,env_mean2,env_mean3,env_mean4,env_mean5,env_mean6,env_mean7,roll_mean_deg,roll_std_deg,roll_slope_degps,pitch_mean_deg,pitch_std_deg,pitch_slope_degps,imu_match_ratio
0.000000,94.851707,EKF,1.743137,20.684597,1.156367,4.314491,36.426479,20.213428,3.377709,5.549085,2.150585,23.088154,1.754544,5.387940,48.625142,22.761299,3.781171,6.933669,0.000000,3.000000,0.000000,0.000000,2.000000,3.000000,0.000000,0.000000,22.128872,208.285120,13.302411,64.454541,406.580084,204.345727,31.234382,83.371340,2.212110,28.196121,2.440435,5.027663,64.323929,28.230018,4.788935,6.674359,13.298000,0.000000,,1.971000,0.000000,,1.000000
0.000000,94.851707,EKF,1.031340,14.609122,0.711390,4.489888,21.218925,14.065289,2.715775,5.802220,1.158725,16.181572,0.946286,5.394780,26.715737,15.535475,3.000761,7.091307,0.000000,3.000000,0.000000,0.000000,3.000000,3.000000,0.000000,0.000000,11.117295,168.484383,9.656840,56.826242,298.753140,164.599291,30.756174,76.238763,2.084203,22.309366,1.671921,5.433767,46.616845,21.989943,3.733930,7.011720,13.298000,0.000000,,1.971000,0.000000,,1.000000
0.000000,94.851707,EKF,1.066203,11.391992,0.689223,3.617700,17.091257,11.320630,2.166444,4.589740,1.218296,12.657967,0.780213,4.352493,20.733636,12.586512,2.494565,5.979991,0.000000,3.000000,0.000000,0.000000,2.000000,3.000000,0.000000,0.000000,10.769614,133.783545,7.279082,50.427713,208.743868,134.646250,25.513298,72.251674,1.775320,18.255286,1.185914,5.194830,34.410626,17.821639,3.149252,6.860144,13.298000,0.000000,,1.971000,0.000000,,1.000000
0.000000,94.851707,EKF,0.475928,7.804415,0.389850,2.637260,10.055093,7.631327,1.309901,3.654048,0.548017,9.087179,0.474297,2.914975,12.558546,9.012660,1.481262,4.383697,0.000000,2.000000,0.000000,0.000000,3.000000,2.000000,0.000000,0.000000,5.560118,91.057366,3.062381,24.096385,133.584552,89.174817,14.925501,38.068489,1.333165,14.090924,0.828640,4.482596,23.695021,13.737387,2.553916,6.158714,13.298000,0.000000,,1.971000,0.000000,,1.000000
0.000000,94.851707,EKF,0.878949,11.212894,0.645756,3.401090,21.831509,10.908247,2.130122,4.572252,1.244027,14.051224,0.847446,4.546395,30.327280,13.798911,2.632466,6.273451,0.000000,2.000000,0.000000,0.000000,3.000000,2.000000,0.000000,0.000000,10.993696,119.480122,6.449388,50.456914,262.097255,115.829967,22.173853,62.486245,1.057335,12.053071,0.725396,3.944151,21.433106,11.874226,2.221125,5.534503,13.298000,0.000000,,1.971000,0.000000,,1.000000
0.000000,94.851707,EKF,1.518199,16.303748,0.881432,4.588160,32.392521,16.048579,2.570072,6.964862,1.732794,18.043187,1.087124,5.571370,37.727575,17.770102,2.975228,8.285900,0.000000,2.000000,0.000000,0.000000,4.000000,2.000000,0.000000,1.000000,17.874761,175.923496,11.160850,58.812455,385.605678,171.828231,28.885270,85.180864,1.212843,13.048708,0.801930,4.222585,26.865749,12.879439,2.295172,6.015387,13.298000,0.000000,,1.971000,0.000000,,1.000000
0.000000,94.851707,EKF,1.237445,11.862739,1.112029,3.746519,27.322369,11.682290,1.620345,6.325870,1.465381,14.153461,1.342859,4.511102,29.831408,13.822645,2.081275,7.277208,0.000000,1.000000,0.000000,0.000000,4.000000,2.000000,0.000000,2.000000,14.702236,166.547859,12.753495,52.607770,289.581200,162.015122,24.693556,80.941139,1.481962,14.908479,1.017123,4.838538,31.894358,14.653802,2.531125,7.058985,13.298000,0.000000,,1.971000,0.000000,,1.000000
0.000000,94.851707,EKF,2.488975,10.930373,0.903690,3.515518,17.963484,11.149923,1.905568,4.755781,3.019496,11.979329,1.099757,4.342178,20.439183,12.167515,2.224216,5.737737,0.000000,3.000000,0.000000,0.000000,4.000000,3.000000,0.000000,0.000000,29.837212,116.349590,11.254084,44.336979,221.810793,116.514089,22.968639,56.700420,1.984537,14.945185,1.174350,4.929353,30.841595,14.791746,2.486474,7.212347,13.298000,0.000000,,1.971000,0.000000,,1.000000
0.000000,94.851707,EKF,2.701429,6.788392,0.720631,1.757964,12.107559,6.548482,1.002641,2.664232,3.235928,7.246921,0.811501,2.278682,14.371961,7.216984,1.245817,3.210490,0.000000,3.000000,0.000000,0.000000,2.000000,3.000000,0.000000,0.000000,24.914486,65.772899,9.825981,22.318414,131.211210,61.197635,11.338202,34.441385,2.530341,12.403871,1.123392,4.221963,24.041379,12.426662,2.077770,6.031184,13.298000,0.000000,,1.971000,0.000000,,1.000000
0.000000,94.851707,EKF,1.453538,4.484287,0.685553,1.330513,7.341218,3.878558,1.007706,2.156166,1.932697,5.041766,0.746762,1.623569,8.912561,4.637107,1.185337,2.456330,0.000000,1.000000,0.000000,0.000000,2.000000,1.000000,0.000000,0.000000,19.502079,47.080763,10.420104,16.133356,94.105047,46.462399,11.211448,20.921374,2.714823,9.171059,0.981157,3.229120,17.617167,9.324139,1.659444,4.348837,13.298000,0.000000,,1.971000,0.000000,,1.000000
0.000000,94.851707,EKF,1.119814,3.163845,0.479109,1.000232,6.689814,3.728062,1.092867,2.206987,1.352485,3.425226,0.598572,1.144481,7.840303,4.139629,1.329954,2.658502,0.000000,0.000000,0.000000,0.000000,1.000000,1.000000,0.000000,0.000000,13.745550,34.215643,6.585550,12.361258,79.036325,42.065014,15.578821,28.466550,2.355750,6.080444,0.797449,2.152746,11.727914,6.173342,1.315146,3.129243,13.298000,0.000000,,1.971000,0.000000,,1.000000
0.000000,94.851707,EKF,2.244745,3.016142,0.429615,0.964118,5.409911,3.055150,0.670578,1.769557,3.237892,3.356961,0.556671,1.105479,6.360647,3.640531,0.875573,2.398427,1.000000,0.000000,0.000000,0.000000,0.000000,1.000000,0.000000,0.000000,30.223418,38.536113,6.005642,10.498070,78.211932,42.370477,9.995735,25.199217,1.987210,4.085319,0.667514,1.417876,8.186310,4.260041,1.170646,2.508831,13.298000,0.000000,,1.971000,0.000000,,1.000000
0.000000,94.851707,EKF,2.238891,3.016291,0.409209,0.793369,4.493412,2.328095,0.521350,1.261912,3.209692,3.426659,0.478968,1.017734,5.533855,2.604903,0.707813,1.653973,1.000000,0.000000,0.000000,0.000000,1.000000,0.000000,0.000000,0.000000,32.223571,34.933526,5.290138,10.393937,64.183732,25.100216,6.549461,17.681662,2.458280,3.425172,0.556891,1.174334,6.720313,3.573611,1.089244,2.288103,13.298000,0.000000,,1.971000,0.000000,,1.000000
0.000000,94.851707,EKF,1.078732,2.416914,0.488851,0.911079,4.151331,2.290273,0.391369,0.975657,1.128767,2.907034,0.542018,1.236274,5.145213,2.734798,0.540116,1.237777,0.000000,0.000000,0.000000,0.000000,2.000000,0.000000,0.000000,0.000000,10.377981,29.822611,6.663693,14.449121,63.866815,29.809456,4.638416,9.540063,2.693205,3.358789,0.518078,1.176342,5.912123,3.211974,0.845511,1.878634,13.298000,0.000000,,1.971000,0.000000,,1.000000
0.000000,94.851707,EKF,0.833364,2.099471,0.496132,0.903260,4.332757,2.606054,0.686428,0.786674,1.010884,2.510994,0.536286,1.156924,5.122954,3.161854,0.944580,1.012266,0.000000,0.000000,0.000000,0.000000,1.000000,0.000000,0.000000,0.000000,13.939134,23.016842,4.627227,11.780919,59.049290,33.438269,9.122530,6.565480,2.244942,3.068357,0.530848,1.249073,5.269032,2.872213,0.683692,1.355972,13.298000,0.000000,,1.971000,0.000000,,1.000000
0.000000,94.851707,EKF,1.315986,1.952274,0.460996,0.527812,4.106257,2.295534,0.783178,1.003076,1.751812,2.330491,0.504226,0.676075,4.916149,2.782656,0.980035,1.298270,0.000000,0.000000,0.000000,0.000000,0.000000,0.000000,0.000000,0.000000,15.301387,28.437685,5.016293,7.821676,47.714142,29.717762,11.522478,11.815889,1.403380,2.613011,0.546288,1.171487,5.023396,2.822098,0.756898,1.097656,13.298000,0.000000,,1.971000,0.000000,,1.000000
0.000000,94.851707,EKF,1.176984,1.769425,0.459981,0.424660,2.268859,2.004627,0.739706,1.060281,1.707923,2.330396,0.550073,0.512297,3.021443,2.470728,0.786189,1.250847,0.000000,0.000000,0.000000,0.000000,0.000000,0.000000,0.000000,0.000000,16.748351,27.344089,5.567514,5.584178,28.767799,28.742584,7.506397,14.063575,1.370692,2.342393,0.555447,0.906538,4.528689,2.738566,0.868966,1.117840,13.298000,0.000000,,1.971000,0.000000,,1.000000
0.000000,94.851707,EKF,0.497202,1.896141,0.292810,0.380623,2.318331,1.635508,0.769940,0.957527,0.665847,2.402888,0.451272,0.415749,2.970017,1.961893,0.860437,1.054882,0.000000,0.000000,0.000000,0.000000,0.000000,0.000000,0.000000,0.000000,7.287119,29.126452,3.978400,3.266065,29.574603,23.583485,10.336899,10.438231,1.457279,2.383094,0.529763,0.628238,3.814830,2.516088,0.894654,1.184935,13.298000,0.000000,,1.971000,0.000000,,1.000000
0.000000,94.851707,EKF,0.515778,2.463588,0.312910,0.689144,2.786426,1.885602,0.559014,1.219776,0.667255,2.841499,0.416762,0.808824,3.746278,2.197858,0.712769,1.519181,0.000000,0.000000,0.000000,0.000000,0.000000,0.000000,0.000000,0.000000,7.763857,30.138214,3.222392,7.515356,37.293978,24.291596,7.598120,15.519328,1.211304,2.533462,0.469127,0.578327,3.489620,2.330255,0.829752,1.257464,13.298000,0.000000,,1.971000,0.000000,,1.000000
0.000000,94.851707,EKF,1.295012,2.264279,0.288370,0.895317,4.244069,1.668977,0.485557,1.420814,1.714548,2.601805,0.404583,1.057158,5.169960,1.860837,0.562749,1.715707,0.000000,0.000000,0.000000,0.000000,0.000000,0.000000,0.000000,0.000000,21.263193,26.647158,3.631215,10.213230,52.070132,17.940205,6.814774,22.198816,1.060199,2.610816,0.413586,0.733349,3.909838,2.142246,0.743113,1.443203,13.298000,0.000000,,1.971000,0.000000,,1.000000
0.000000,94.851707,EKF,1.017757,1.882354,0.537801,0.896046,3.843356,1.536188,0.658644,1.163418,1.421319,2.244837,0.719595,1.121452,4.816479,2.030682,0.821995,1.581983,0.000000,0.000000,0.000000,0.000000,0.000000,0.000000,0.000000,0.000000,15.921997,26.589909,7.200322,12.372781,52.327888,24.198514,10.821932,15.927304,1.323409,2.551269,0.441329,0.954664,4.594371,2.048626,0.687302,1.691573,13.298000,0.000000,,1.971000,0.000000,,1.000000
0.000000,94.851707,EKF,0.651390,1.831449,0.744521,0.785607,4.389037,1.883269,0.499080,0.765948,0.801277,2.203788,0.841183,0.970866,5.181687,2.427651,0.716152,0.957432,0.000000,0.000000,0.000000,0.000000,0.000000,0.000000,0.000000,0.000000,8.549387,25.323390,10.511296,9.391935,48.702745,30.731026,8.292155,8.257195,1.424150,2.391986,0.607912,1.055238,4.978127,2.122459,0.688422,1.682985,13.298000,0.000000,,1.971000,0.000000,,1.000000
0.000000,94.851707,EKF,1.110220,2.182100,0.523703,0.842389,3.875972,2.020254,0.494752,0.996330,1.320324,2.630750,0.725647,1.025422,4.566150,2.357649,0.644949,1.159717,0.000000,0.000000,0.000000,0.000000,0.000000,0.000000,0.000000,0.000000,14.928429,27.125314,8.539157,10.248876,49.437556,23.922889,6.914658,10.934220,1.258895,2.329304,0.732187,1.058112,4.970050,2.265888,0.748698,1.418060,13.298000,0.000000,,1.971000,0.000000,,1.000000
0.000000,94.851707,EKF,1.309996,2.116941,0.507913,0.560707,4.141255,1.987072,0.441255,1.162620,1.577485,2.610536,0.669524,0.693929,4.806742,2.341643,0.474865,1.498998,0.000000,0.000000,0.000000,0.000000,0.000000,0.000000,0.000000,0.000000,21.923856,25.837111,6.026174,6.753864,47.572311,22.552095,4.949027,16.408779,1.223459,2.382232,0.759390,0.966918,4.757968,2.284260,0.714592,1.194913,13.298000,0.000000,,1.971000,0.000000,,1.000000
0.000000,94.851707,EKF,0.948004,1.924242,0.401470,0.683504,3.324678,1.861316,0.391116,1.385561,1.176529,2.411054,0.441808,0.787760,4.155050,2.194712,0.517148,1.657072,0.000000,0.000000,0.000000,0.000000,0.000000,0.000000,0.000000,0.000000,12.380755,29.657103,3.577736,7.551539,43.437542,24.679406,5.916449,16.891126,1.397151,2.444515,0.657444,0.875721,4.586702,2.194834,0.618975,1.295793,13.298000,0.000000,,1.971000,0.000000,,1.000000
0.000000,94.851707,EKF,0.614722,1.636202,0.564741,0.820623,3.660346,1.986465,0.559923,1.377772,0.784235,2.084071,0.621828,0.882057,4.810027,2.303419,0.716264,1.555784,0.000000,0.000000,0.000000,0.000000,0.000000,0.000000,0.000000,0.000000,8.690211,24.017798,8.279933,11.013612,42.963208,25.874841,7.904908,16.420278,1.345671,2.387829,0.570994,0.826261,4.335417,2.189037,0.605160,1.504597,13.298000,0.000000,,1.971000,0.000000,,1.000000
0.000000,94.851707,EKF,0.703309,1.895519,0.681073,0.647578,3.416303,2.321384,0.591011,1.094646,0.835435,2.069023,0.778147,0.721743,4.311886,2.489263,0.686478,1.355344,0.000000,0.000000,0.000000,0.000000,0.000000,0.000000,0.000000,0.000000,7.457760,19.724308,10.405275,9.755244,38.154996,23.397272,6.477943,15.529710,1.062631,2.257359,0.576703,0.822224,4.325764,2.316608,0.630250,1.564716,13.298000,0.000000,,1.971000,0.000000,,1.000000
0.000000,94.851707,EKF,0.881296,2.027947,0.535310,0.656979,3.573894,2.155309,0.620471,0.702429,0.952273,2.118886,0.663013,0.827381,3.980166,2.290824,0.690677,0.903482,0.000000,0.000000,0.000000,0.000000,0.000000,0.000000,0.000000,0.000000,8.373227,19.134195,8.087408,8.626157,36.802103,22.591462,6.248988,9.408602,0.867048,2.131669,0.663001,0.793517,4.325352,2.349208,0.674327,1.379385,13.298000,0.000000,,1.971000,0.000000,,1.000000
0.000000,94.851707,EKF,0.849868,1.561079,0.353611,0.898680,3.727121,1.918469,0.500050,1.195503,0.913238,1.694020,0.442666,1.139135,4.678056,2.077375,0.564051,1.361252,0.000000,0.000000,0.000000,0.000000,0.000000,0.000000,0.000000,0.000000,8.546321,17.680060,4.061492,13.969930,49.528207,22.122841,5.335782,12.381939,0.838241,1.981001,0.649762,0.836275,4.526648,2.310120,0.664612,1.174212,13.298000,0.000000,,1.971000,0.000000,,1.000000
0.000000,94.851707,EKF,0.782989,1.814419,0.376674,0.858137,4.385328,2.202692,0.369853,1.241209,0.887040,1.984904,0.445959,1.127264,5.489104,2.352912,0.399922,1.527041,0.000000,0.000000,0.000000,0.000000,0.000000,0.000000,0.000000,0.000000,10.226569,21.959220,4.539558,12.552216,42.397753,22.553923,3.043833,16.011567,0.873108,1.915753,0.549669,0.989969,4.597764,2.238077,0.592004,1.238479,13.298000,0.000000,,1.971000,0.000000,,1.000000
10.000000,94.851707,EKF,0.421965,2.267651,0.397344,0.880236,5.802644,2.093940,0.773506,1.045491,0.557527,2.464379,0.474532,1.008195,7.257572,2.413731,0.882653,1.392435,0.000000,0.000000,0.000000,0.000000,1.000000,0.000000,0.000000,0.000000,6.485080,23.463915,3.246667,9.055630,75.218049,25.464547,6.860268,12.855089,0.798578,1.983107,0.446728,1.067494,5.221254,2.314766,0.625768,1.422857,13.298000,0.000000,0.000000,1.971000,0.000000,0.000000,1.000000
24.000000,94.851707,EKF,0.427693,2.138772,0.575197,0.853768,5.450310,1.819290,0.842946,0.835586,0.562625,2.431725,0.633430,0.924027,6.866316,2.203275,0.914268,1.060235,0.000000,0.000000,0.000000,0.000000,1.000000,0.000000,0.000000,0.000000,6.576379,22.199974,4.466380,9.453550,65.968799,19.220856,7.860568,10.336661,0.710402,2.220865,0.470454,1.002272,6.140215,2.305931,0.757878,1.405964,13.298000,0.000000,0.000000,1.971000,0.000000,0.000000,1.000000
43.500000,94.851707,EKF,0.552882,1.597092,0.828745,0.830149,3.874020,1.762720,0.469025,1.019175,0.638988,1.767260,0.875372,0.920356,4.726009,2.110071,0.554255,1.238271,0.000000,0.000000,0.000000,0.000000,0.000000,0.000000,0.000000,0.000000,6.146515,16.930951,7.398282,9.470806,47.826406,20.941996,5.331741,12.029176,0.628440,2.252645,0.604742,0.906325,6.511046,2.221169,0.817458,1.228814,13.298000,0.000000,0.000000,1.971000,0.000000,0.000000,1.000000
65.500000,94.851707,EKF,0.596012,1.842370,0.746568,0.601104,5.278886,2.027402,0.467169,0.979147,0.727284,2.074574,0.876610,0.773194,6.346166,2.164725,0.565556,1.132550,0.000000,0.000000,0.000000,0.000000,0.000000,0.000000,0.000000,0.000000,6.972996,22.093350,9.397674,7.741775,61.909257,19.545814,4.689002,12.888609,0.647414,2.140451,0.756097,0.882202,6.174781,2.095284,0.714465,1.148433,13.298000,0.000000,0.000000,1.971000,0.000000,0.000000,1.000000
102.000000,94.851707,EKF,1.106062,1.379573,0.479742,0.565877,4.359988,1.644907,0.481708,0.773978,1.296463,1.578156,0.662771,0.684588,5.414798,1.754881,0.589633,0.913892,0.000000,0.000000,0.000000,0.000000,0.000000,0.000000,0.000000,0.000000,13.633637,16.911100,6.438954,7.212765,58.966055,17.015182,5.389844,11.040684,0.870213,1.973148,0.802582,0.823630,5.655579,2.043582,0.576505,1.100878,13.298000,0.000000,0.000000,1.971000,0.000000,0.000000,1.000000
121.000000,94.851707,EKF,1.119550,1.794973,0.470195,0.579279,4.216142,1.607399,0.346209,0.882701,1.270991,1.930152,0.578670,0.632972,5.530530,1.837235,0.403119,0.994821,0.000000,0.000000,0.000000,0.000000,1.000000,0.000000,0.000000,0.000000,10.214888,17.797828,6.981215,6.115630,51.622171,16.079514,4.662287,10.434723,1.148895,1.874300,0.740290,0.719498,5.580562,1.890354,0.538790,1.011781,13.298000,0.000000,0.000000,1.971000,0.000000,0.000000,1.000000
144.500000,94.851707,EKF,0.827270,1.847681,0.513044,0.568530,6.046149,1.819005,0.710683,1.193830,0.950343,2.037499,0.576613,0.618081,7.259372,2.164961,0.910341,1.360551,0.000000,0.000000,0.000000,0.000000,2.000000,0.000000,0.000000,0.000000,9.546196,20.272883,7.815370,5.769958,77.257181,22.525570,9.428208,14.258296,1.242122,1.864706,0.640821,0.639375,6.043418,1.863984,0.588254,1.024898,13.298000,0.000000,0.000000,1.971000,0.000000,0.000000,1.000000
172.500000,94.851707,EKF,0.890498,1.820238,0.450306,0.460519,5.884238,1.918254,0.695986,1.343755,1.059154,2.065469,0.503165,0.521734,7.138813,2.166546,0.931829,1.633155,0.000000,0.000000,0.000000,0.000000,2.000000,0.000000,0.000000,0.000000,13.987718,20.417563,5.776100,5.648579,72.138095,19.784326,10.133184,16.362658,1.155766,1.968020,0.577510,0.599980,6.725936,2.038883,0.720634,1.261985,13.298000,0.000000,0.000000,1.971000,0.000000,0.000000,1.000000
210.000000,94.851707,EKF,1.116073,1.688966,0.409658,0.384762,4.004249,1.456244,0.512399,0.979015,1.197240,2.007479,0.483293,0.435803,4.636339,1.656686,0.655343,1.306528,0.000000,0.000000,0.000000,0.000000,0.000000,0.000000,0.000000,0.000000,14.123518,22.111946,5.124727,4.378446,50.095467,16.410863,8.163090,12.180264,1.066542,2.042379,0.549856,0.549724,6.693559,2.099326,0.815213,1.410853,13.230556,0.064153,-6.653846,2.108333,0.134033,14.000000,1.000000
222.500000,94.851707,EKF,0.992339,1.969127,0.494963,0.661600,4.479403,1.875321,0.527638,1.309743,1.055412,2.214495,0.588833,0.950783,5.335361,2.050129,0.654430,1.547513,0.000000,0.000000,0.000000,0.000000,0.000000,0.000000,0.000000,0.000000,8.259954,22.133366,7.465117,9.586639,55.852644,20.752287,5.992482,15.900858,1.064771,2.088998,0.520495,0.565683,5.806921,1.998039,0.779616,1.459674,13.137889,0.035946,-2.466667,2.310222,0.085269,6.155556,1.000000
245.500000,94.851707,EKF,1.351938,1.552560,0.534192,1.167993,5.630066,1.828770,0.512443,1.230381,1.625925,1.885502,0.608570,1.404512,6.605235,1.887834,0.655476,1.407646,0.000000,0.000000,0.000000,0.000000,0.000000,0.000000,0.000000,0.000000,14.306311,19.809213,7.494543,15.772430,72.624590,17.240460,7.653834,15.457746,1.206793,2.090715,0.543026,0.841511,5.544481,1.917258,0.690699,1.442801,13.093889,0.018988,-1.155556,2.417333,0.049318,3.000000,1.000000
264.500000,94.851707,EKF,1.088964,1.900995,0.611892,1.251229,6.531777,1.731547,0.608007,0.951728,1.495010,2.189669,0.734870,1.358546,7.773826,2.025729,0.720728,1.100144,0.000000,0.000000,0.000000,0.000000,0.000000,0.000000,0.000000,0.000000,14.029888,21.533407,6.832090,11.966223,71.778001,17.135160,6.247458,11.191454,1.370316,2.080708,0.638883,1.186921,6.308842,1.922560,0.688341,1.397826,13.070000,0.010198,-0.891892,2.483444,0.030496,2.540541,1.000000
301.500000,94.851707,EKF,0.966341,1.527256,0.454039,0.735912,5.913816,1.278381,0.819272,0.861646,1.187096,1.797356,0.576936,0.809166,6.787256,1.666334,1.067915,1.072486,0.000000,0.000000,0.000000,0.000000,2.000000,0.000000,0.000000,0.000000,15.169872,19.239086,4.262043,7.160534,69.259063,15.827085,9.554537,12.360046,1.413631,1.999600,0.686413,1.258118,6.890933,1.894834,0.827528,1.292424,13.069222,0.007828,0.594595,2.532778,0.017812,0.810811,1.000000
350.000000,94.851707,EKF,1.540810,1.821847,0.358589,0.449651,5.550256,1.914944,0.512516,0.616611,1.876296,2.152433,0.401742,0.502604,6.464601,2.284918,0.633411,0.865841,0.000000,0.000000,0.000000,0.000000,1.000000,0.000000,0.000000,0.000000,21.199488,23.478586,4.971799,4.779981,66.426455,22.936411,6.280931,8.003170,1.413411,2.014557,0.616484,1.009142,6.844395,1.962624,0.920436,1.085463,13.080222,0.004984,0.144444,2.549333,0.004830,0.077778,1.000000
361.500000,94.851707,EKF,1.156328,1.846182,0.503720,0.482377,5.541879,1.909080,0.537146,0.802637,1.596656,2.114627,0.563884,0.584759,6.687531,2.339442,0.761876,0.997803,0.000000,0.000000,0.000000,0.000000,0.000000,0.000000,0.000000,0.000000,16.611101,21.169908,8.470238,5.714194,68.679938,24.499317,8.668937,8.062482,1.477188,2.079831,0.517263,0.696307,6.796684,2.166316,0.910660,0.970953,13.085444,0.002910,0.104478,2.554778,0.004157,0.149254,1.000000
395.500000,94.851707,EKF,0.688973,2.279304,0.427351,0.510931,5.928138,1.713134,0.563584,1.383483,0.872710,2.465171,0.496205,0.675839,7.133157,2.118645,0.862027,1.697783,0.000000,0.000000,0.000000,0.000000,0.000000,0.000000,0.000000,0.000000,9.875649,23.137508,6.280274,5.273120,62.830209,19.930398,7.176521,14.948855,1.512999,2.195662,0.472539,0.584362,6.900978,2.263769,0.795274,1.147906,13.087000,0.000000,0.000000,2.557000,0.000000,0.000000,1.000000
423.000000,94.851707,EKF,1.023845,1.797122,0.322945,0.607463,5.313009,1.852965,0.513145,1.265187,1.229595,2.105913,0.371602,0.799748,6.208070,2.253877,0.694239,1.757337,0.000000,0.000000,0.000000,0.000000,1.000000,0.000000,0.000000,0.000000,13.768755,22.271391,4.424917,8.624046,61.025858,24.929545,6.303540,16.181585,1.279086,2.244644,0.483337,0.671535,6.712158,2.222000,0.742807,1.437732,13.073667,0.011926,-0.444444,2.573111,0.014410,0.537037,1.000000
464.500000,94.851707,EKF,0.861537,2.019621,0.259087,0.650454,5.037323,2.019218,0.445715,1.190898,1.069115,2.307625,0.342264,0.793210,6.503090,2.385165,0.574351,1.489289,0.000000,0.000000,0.000000,0.000000,2.000000,0.000000,0.000000,0.000000,11.908190,23.805041,2.450262,7.304383,83.011055,25.335555,5.254523,14.851697,1.051029,2.262061,0.410718,0.761419,6.399907,2.180549,0.700080,1.586480,13.062778,0.000416,-0.032258,2.588222,0.004157,0.322581,1.000000
465.000000,94.851707,EKF,0.810040,1.936482,0.276640,0.744331,4.542570,1.769849,0.662156,1.039874,0.947092,2.348639,0.319815,0.874779,6.354014,2.162585,0.799082,1.211023,0.000000,0.000000,0.000000,0.000000,2.000000,0.000000,0.000000,0.000000,10.978782,24.138625,3.029729,7.477375,78.164386,26.159315,9.520336,13.542252,1.000690,2.328465,0.341116,0.813998,6.350101,2.285130,0.679369,1.500428,13.062222,0.000416,-0.033333,2.593778,0.004157,0.333333,1.000000
483.000000,94.851707,EKF,0.862561,1.963124,0.391493,0.674963,5.959662,2.179444,0.671894,0.699263,0.984111,2.309510,0.475028,0.825777,7.101419,2.663349,0.792432,1.008971,0.000000,0.000000,0.000000,0.000000,2.000000,0.000000,0.000000,0.000000,9.525395,19.988742,5.241436,6.917895,84.292866,27.546889,6.728613,9.438824,0.949794,2.335125,0.370346,0.823272,6.620302,2.361401,0.737072,1.322187,13.062000,0.000000,0.000000,2.596000,0.000000,0.000000,1.000000
512.000000,94.851707,EKF,0.852077,1.745116,0.457228,0.363311,6.411618,2.093216,0.458432,0.641805,0.963222,2.063358,0.638873,0.406263,6.982271,2.523937,0.568326,0.897606,0.000000,0.000000,0.000000,0.000000,2.000000,0.000000,0.000000,0.000000,9.630725,21.366086,6.120127,3.929030,100.840415,26.290119,6.068348,7.320427,0.929256,2.212527,0.430449,0.753750,6.758777,2.414075,0.739559,1.112371,13.062000,0.000000,0.000000,2.595111,0.002233,0.076923,1.000000
527.000000,94.851707,EKF,0.847155,2.037651,0.506915,0.618093,4.941654,2.069792,0.422764,0.688499,0.959484,2.356283,0.685695,0.754114,5.939481,2.490324,0.540871,0.919424,0.000000,0.000000,0.000000,0.000000,2.000000,0.000000,0.000000,0.000000,8.967766,29.127500,8.386365,8.275489,80.068050,27.715560,7.112663,7.597846,0.947961,2.125431,0.561351,0.683152,6.689386,2.527919,0.661889,0.892992,13.062000,0.000000,0.000000,2.597667,0.003300,0.194444,1.000000
554.000000,94.851707,EKF,0.618859,1.742670,0.317903,0.587689,2.973368,1.769500,0.523503,0.961235,0.738344,2.088297,0.369474,0.695553,4.131508,2.113661,0.668600,1.171084,0.000000,0.000000,0.000000,0.000000,1.000000,0.000000,0.000000,0.000000,8.189058,23.869171,4.479356,6.690724,48.599140,24.452280,6.445196,10.465686,0.907211,2.163620,0.620987,0.670280,6.106337,2.509999,0.569965,0.892464,13.058889,0.004605,-0.366667,2.604333,0.006342,0.500000,1.000000
569.000000,94.851707,EKF,0.520025,2.042328,0.317099,0.621103,3.517703,2.278534,0.634636,1.092647,0.651626,2.458106,0.396272,0.719896,4.226131,2.520969,0.872374,1.206046,0.000000,0.000000,0.000000,0.000000,0.000000,0.000000,0.000000,0.000000,6.470079,24.588998,3.328771,7.936705,41.241259,25.967451,7.408816,8.977616,0.815249,2.243188,0.559003,0.727449,5.115755,2.435378,0.616409,1.018097,13.051000,0.004830,-0.326087,2.615333,0.006700,0.456522,1.000000
609.500000,94.851707,EKF,0.933345,2.089138,0.305334,0.804636,3.482874,2.090783,0.777859,1.126468,1.128910,2.438132,0.381239,0.865939,4.087568,2.499403,0.946125,1.213459,0.000000,0.000000,0.000000,0.000000,0.000000,0.000000,0.000000,0.000000,15.095807,25.591533,3.676731,8.610789,42.085091,26.043266,10.702976,11.419605,0.836403,2.262410,0.435040,0.777009,4.206732,2.381665,0.772574,1.119580,13.044778,0.002485,-0.216216,2.624778,0.003583,0.270270,1.000000
628.000000,94.851707,EKF,0.596497,2.311715,0.384301,0.953261,2.890137,2.005089,0.672528,0.905546,0.916069,2.670310,0.486085,1.030054,3.567427,2.465381,0.811487,1.042926,0.000000,0.000000,0.000000,0.000000,1.000000,0.000000,0.000000,0.000000,9.930975,28.190485,5.223199,10.417320,39.450787,24.587129,9.262181,11.611307,0.951507,2.415182,0.398543,0.852186,3.864890,2.440182,0.902901,1.117485,13.038444,0.005500,-0.326087,2.629667,0.001886,0.086957,1.000000
651.500000,94.851707,EKF,0.790800,2.015423,0.364502,0.908241,3.171804,1.957886,0.540716,0.737065,0.982721,2.441186,0.472751,1.009640,4.143960,2.273210,0.700657,0.864973,0.000000,0.000000,0.000000,0.000000,2.000000,0.000000,0.000000,0.000000,8.002265,25.973852,5.101521,10.486222,49.004102,24.985444,5.051572,8.771810,1.017316,2.569620,0.439641,0.955924,3.957842,2.494855,0.885854,1.049035,13.029556,0.005560,-0.302326,2.631444,0.000685,0.046512,1.000000
671.500000,94.851707,EKF,0.793554,2.221183,0.611461,0.974530,3.772822,2.496539,0.425410,0.964144,0.916858,2.668932,0.811681,1.129299,4.716122,2.996807,0.665574,1.115261,0.000000,0.000000,0.000000,0.000000,2.000000,0.000000,0.000000,0.000000,7.823982,23.497943,7.327564,10.531137,56.892962,28.811390,6.170933,9.678785,0.981639,2.538378,0.526555,1.017599,4.178191,2.569223,0.791337,1.065476,13.025000,0.002000,-0.081081,2.633222,0.001315,0.081081,1.000000
706.000000,94.851707,EKF,0.694974,2.337575,0.623518,0.961347,3.456514,2.249065,0.422123,0.997195,0.849840,2.724668,0.804190,1.134401,4.251772,2.654457,0.526363,1.056510,0.000000,0.000000,0.000000,0.000000,0.000000,0.000000,0.000000,0.000000,8.006234,29.420962,9.682574,11.520650,43.685823,28.241183,4.806327,9.886811,0.918035,2.507215,0.665085,1.052630,4.396333,2.653677,0.693159,1.101702,13.022889,0.001792,-0.027778,2.634778,0.000916,-0.055556,1.000000
729.500000,94.851707,EKF,0.685106,1.994785,0.449548,0.660143,3.096313,2.017110,0.694465,1.252167,0.834278,2.381101,0.500466,0.835091,3.746137,2.381239,0.759064,1.329118,0.000000,0.000000,0.000000,0.000000,0.000000,0.000000,0.000000,0.000000,8.992057,25.711270,5.827369,8.208941,42.685293,25.676419,6.597808,12.507839,0.908364,2.539101,0.708509,1.039013,4.142677,2.672144,0.669434,1.176193,13.022222,0.001030,0.054054,2.634222,0.001133,-0.027027,1.000000
752.500000,94.851707,EKF,0.485686,1.920650,0.560629,0.351239,2.227938,1.867194,0.628119,1.591310,0.584129,2.289212,0.771157,0.390342,2.845839,2.238856,0.704068,1.729944,0.000000,0.000000,0.000000,0.000000,0.000000,0.000000,0.000000,0.000000,6.405104,24.757271,8.323847,4.403192,38.671753,25.514213,8.066777,14.607082,0.821734,2.575846,0.739237,0.916226,3.599556,2.552822,0.690313,1.303805,13.023889,0.001100,0.076923,2.634556,0.000831,0.051282,1.000000
772.500000,94.851707,EKF,0.438755,2.404860,0.328806,0.641344,3.042920,2.213757,0.721386,1.388904,0.562907,2.811060,0.436267,0.842160,4.041407,2.729916,0.816897,1.664485,0.000000,0.000000,0.000000,0.000000,1.000000,0.000000,0.000000,0.000000,5.153876,25.552908,4.926439,8.313872,50.708647,28.027958,10.869979,11.295708,0.698315,2.493877,0.697814,0.763357,3.562164,2.420480,0.740880,1.442072,13.023556,0.001423,-0.044444,2.636333,0.001491,0.066667,1.000000
812.000000,94.851707,EKF,0.530719,2.522805,0.327788,0.825436,4.272581,2.287257,0.522973,0.973101,0.721340,3.128075,0.399427,1.040259,5.129791,2.705755,0.632730,1.429199,0.000000,0.000000,0.000000,0.000000,2.000000,0.000000,0.000000,0.000000,8.850725,36.224385,5.019069,11.316088,52.559645,30.895717,5.952377,13.646213,0.609935,2.543210,0.631452,0.785429,3.937901,2.478886,0.761600,1.546522,13.022556,0.001571,-0.078947,2.642556,0.004086,0.236842,1.000000
830.000000,94.851707,EKF,0.809605,2.443074,0.310156,0.672912,3.633192,2.113504,0.559864,1.191679,0.951897,3.042546,0.336026,0.898339,4.200656,2.474891,0.645625,1.645318,0.000000,0.000000,0.000000,0.000000,1.000000,0.000000,0.000000,0.000000,9.439545,36.467751,3.444427,8.283799,48.709560,29.149854,7.738619,16.498454,0.679457,2.797725,0.471739,0.916063,4.237709,2.571617,0.722477,1.573633,13.020444,0.002543,-0.214286,2.647111,0.001100,0.107143,1.000000
853.000000,94.851707,EKF,0.996722,2.002371,0.261288,0.743158,3.220492,2.312648,0.510972,1.038733,1.293320,2.535742,0.308793,0.833944,3.720823,2.843855,0.605027,1.382181,0.000000,0.000000,0.000000,0.000000,0.000000,0.000000,0.000000,0.000000,10.928342,29.452526,2.530358,6.186508,49.599951,39.527415,8.592876,13.568701,0.815977,2.947639,0.349712,0.943506,4.233622,2.727682,0.665123,1.521959,13.021667,0.003830,0.190476,2.648222,0.000786,0.023810,1.000000
872.500000,94.851707,EKF,0.818105,2.317313,0.373650,0.902992,2.631915,2.333587,0.527295,0.840048,1.158607,2.905295,0.460889,1.016521,3.356776,2.858921,0.616624,0.969450,0.000000,0.000000,0.000000,0.000000,0.000000,0.000000,0.000000,0.000000,11.222439,28.825005,5.455049,9.853563,37.392067,30.482036,5.965044,7.412758,1.026677,2.866269,0.344344,0.911728,3.896044,2.763892,0.603895,1.347503,13.027111,0.002685,0.230769,2.646333,0.002108,-0.128205,1.000000
913.500000,94.851707,EKF,0.649515,2.018496,0.501799,0.713021,1.315980,1.872511,0.768896,1.178394,0.777997,2.494390,0.544069,0.828328,1.545280,2.263352,0.835820,1.326136,0.000000,0.000000,0.000000,0.000000,0.000000,0.000000,0.000000,0.000000,6.656259,25.968251,6.130181,9.448371,19.168143,24.716238,11.130606,12.340709,1.100453,2.663675,0.431072,0.907041,3.279227,2.633479,0.664187,1.177845,13.030556,0.002753,0.088889,2.643778,0.000629,-0.044444,1.000000
928.000000,94.851707,EKF,0.904595,1.998387,0.476463,0.585794,1.090935,2.028768,0.807789,0.933900,1.037123,2.446257,0.557155,0.694919,1.292498,2.444554,0.841735,1.157980,0.000000,0.000000,0.000000,0.000000,0.000000,0.000000,0.000000,0.000000,8.459767,24.540550,6.087585,7.408464,12.278668,30.770657,9.717488,12.469847,1.069755,2.544077,0.493228,0.888953,2.312291,2.429388,0.762222,1.119969,13.033333,0.002108,0.152174,2.642889,0.000875,-0.021739,1.000000
956.000000,94.851707,EKF,0.616117,2.240599,0.685692,0.549935,1.421541,2.051098,0.601470,0.942939,0.677449,2.561183,0.737276,0.633284,1.650222,2.433395,0.698851,1.120705,0.000000,0.000000,0.000000,0.000000,0.000000,0.000000,0.000000,0.000000,4.380126,32.646667,7.144764,6.209684,16.488463,31.297476,7.612042,9.902081,0.944400,2.518310,0.579138,0.794051,1.568052,2.381940,0.828226,1.179048,13.035222,0.001474,0.105263,2.644111,0.002079,0.131579,1.000000
971.000000,94.851707,EKF,0.609508,2.845204,0.660035,0.980259,2.698618,2.493569,0.587675,1.270510,0.781912,3.300472,0.722587,1.170614,3.432689,2.874259,0.710170,1.384008,0.000000,0.000000,0.000000,0.000000,0.000000,0.000000,0.000000,0.000000,4.999918,38.510944,7.035037,10.940861,33.534120,28.427442,8.675390,12.298336,0.824342,2.691381,0.644929,0.847023,2.040097,2.556454,0.795438,1.190698,13.037222,0.000916,0.078947,2.647889,0.002233,0.184211,1.000000
1015.000000,94.851707,EKF,0.960914,2.834924,0.492698,0.911010,3.667155,2.336933,0.845949,0.806362,1.127249,3.414057,0.613834,1.027854,4.153090,2.826183,0.952078,0.963824,0.000000,0.000000,0.000000,0.000000,0.000000,0.000000,0.000000,0.000000,11.176647,38.973559,4.988488,11.952355,39.178288,30.078115,12.944732,11.187928,0.815313,3.009518,0.683692,0.991234,3.031432,2.686073,0.773794,1.161884,13.033222,0.004315,-0.134615,2.651222,0.001133,0.057692,1.000000
1029.500000,94.851707,EKF,0.771150,2.229462,0.254180,1.009868,3.913578,2.087725,0.914986,0.893157,0.925278,2.880005,0.327114,1.140021,4.209253,2.730908,1.045946,1.220363,0.000000,0.000000,0.000000,0.000000,0.000000,0.000000,0.000000,0.000000,9.632319,35.952256,3.678411,13.267372,46.649095,32.044611,14.338604,11.692471,0.903654,3.163650,0.618722,1.102473,3.757760,2.759025,0.863600,1.178778,13.030111,0.000875,0.027027,2.652444,0.000497,0.000000,1.000000
1057.500000,94.851707,EKF,0.570977,1.875252,0.226148,1.057446,3.414262,2.069848,0.743333,1.298225,0.760134,2.450156,0.253302,1.280604,3.779486,2.561729,0.891555,1.575594,0.000000,0.000000,0.000000,0.000000,0.000000,0.000000,0.000000,0.000000,5.524641,28.751065,2.840412,17.709498,35.147715,34.747793,10.133838,15.241112,0.928257,3.061655,0.481437,1.170944,4.023456,2.792818,0.967730,1.231344,13.028889,0.002079,-0.172414,2.654222,0.002699,0.172414,1.000000
1072.500000,94.851707,EKF,0.787719,2.060540,0.413095,0.833300,1.962930,2.207020,0.433714,1.222393,0.989674,2.547064,0.533839,1.110453,2.213560,2.743577,0.539282,1.404409,0.000000,0.000000,0.000000,0.000000,0.000000,0.000000,0.000000,0.000000,12.316744,26.456401,5.929197,9.448527,21.938538,29.088154,4.526614,13.513727,0.921947,2.768728,0.383451,1.158578,3.713309,2.770166,0.913346,1.361965,13.026000,0.001491,-0.111111,2.657778,0.002096,0.155556,1.000000
1112.000000,94.851707,EKF,0.598185,2.261138,0.539214,0.747549,2.479393,1.808317,0.331580,0.944721,0.659359,2.769322,0.660187,0.932814,3.247151,2.301205,0.378129,1.270393,0.000000,0.000000,0.000000,0.000000,0.000000,0.000000,0.000000,0.000000,8.137706,28.685602,8.191277,10.859816,30.716961,24.134412,4.557500,10.726299,0.883902,2.561745,0.446493,1.073072,3.402586,2.657139,0.689353,1.363828,13.026111,0.000994,0.052632,2.658444,0.000497,-0.026316,1.000000
1130.500000,94.851707,EKF,0.851150,1.924671,0.439210,0.881736,1.999362,1.754543,0.333194,0.994378,1.100767,2.487403,0.534141,1.040190,2.268646,2.356592,0.384122,1.411425,0.000000,0.000000,0.000000,0.000000,0.000000,0.000000,0.000000,0.000000,12.525732,27.868472,6.070171,12.414132,14.990786,25.848717,5.511041,15.130653,0.901585,2.548835,0.537782,0.943275,3.040084,2.486697,0.450933,1.300375,13.027444,0.000831,0.044444,2.658444,0.000831,0.044444,1.000000
1153.000000,94.851707,EKF,0.842824,1.697022,0.373152,1.103590,3.144244,1.948816,0.561111,1.027128,1.075432,2.140810,0.448242,1.270008,3.782121,2.748915,0.712846,1.285974,0.000000,0.000000,0.000000,0.000000,0.000000,0.000000,0.000000,0.000000,12.958368,24.890194,4.996936,16.049736,39.665215,33.027000,8.090094,13.044931,0.937594,2.544811,0.553876,1.013598,3.156010,2.482530,0.473829,1.315597,13.027556,0.001066,0.023810,2.655667,0.003055,-0.119048,1.000000
1173.500000,94.851707,EKF,0.606393,2.299993,0.387167,0.930074,2.774981,2.382026,0.985487,1.318222,0.646778,2.717719,0.462417,1.107004,3.457133,2.845001,1.097042,1.572674,0.000000,0.000000,0.000000,0.000000,0.000000,0.000000,0.000000,0.000000,8.003161,28.919300,6.450748,12.663040,35.000342,28.781874,9.510673,14.471990,0.944410,2.555778,0.500710,1.114465,3.348604,2.593793,0.689728,1.366510,13.029111,0.001792,0.135135,2.654333,0.001491,0.081081,1.000000
1209.500000,94.851707,EKF,0.745408,1.942998,0.505123,0.563870,2.823328,2.085436,0.991226,1.342453,0.870975,2.376821,0.599463,0.750108,3.671101,2.426655,1.070959,1.578574,0.000000,0.000000,0.000000,0.000000,0.000000,0.000000,0.000000,0.000000,7.488608,24.428311,6.924483,7.589426,31.788092,24.368569,8.688651,18.827084,0.872716,2.472428,0.475145,1.054776,3.393046,2.649627,0.897181,1.446740,13.029778,0.001133,-0.081081,2.657111,0.001792,0.162162,1.000000
1232.000000,94.851707,EKF,0.883140,1.699481,0.494575,0.770783,2.614608,1.639994,0.613285,1.004110,1.129347,2.083617,0.598529,0.926366,3.810958,2.170391,0.689362,1.271215,0.000000,0.000000,0.000000,0.000000,0.000000,0.000000,0.000000,0.000000,13.381732,21.975686,7.493966,11.275220,39.131961,24.362047,5.486015,14.223105,0.846962,2.392692,0.523827,0.913432,3.536526,2.461423,0.955057,1.480392,13.027889,0.001595,0.000000,2.662333,0.004269,0.289474,1.000000
1258.500000,94.851707,EKF,0.624201,1.721908,0.348124,0.747235,2.175437,1.868115,0.846053,0.940305,0.908785,2.051997,0.394197,0.856554,2.861917,2.357717,1.056966,1.208935,0.000000,0.000000,0.000000,0.000000,0.000000,0.000000,0.000000,0.000000,7.385148,21.977219,5.038492,10.526633,27.746308,26.476872,10.105758,9.421939,0.944754,2.238515,0.545761,0.856950,3.464455,2.343497,0.914305,1.409745,13.027444,0.001571,0.060606,2.667000,0.001155,0.060606,1.000000
1274.500000,94.851707,EKF,0.785918,2.317436,0.439686,1.026879,2.067363,1.702171,0.632072,1.371189,1.041946,2.794155,0.479501,1.265885,2.640070,1.929239,0.949466,1.660952,0.000000,0.000000,0.000000,0.000000,0.000000,0.000000,0.000000,0.000000,9.590621,29.676835,4.472524,13.620757,31.834359,18.058725,8.630232,14.870059,0.981616,2.310870,0.517796,1.030273,3.274832,2.198442,0.903429,1.368664,13.028111,0.000994,0.000000,2.667556,0.000497,0.000000,1.000000
1335.000000,94.851707,EKF,0.846035,2.255497,0.684272,0.742762,2.433240,1.816622,0.370771,1.242296,1.125231,2.608048,0.777538,0.822166,2.910768,2.121029,0.440976,1.556200,0.000000,0.000000,0.000000,0.000000,0.000000,0.000000,0.000000,0.000000,8.947548,24.864891,9.231442,8.533636,27.945861,22.152956,4.077815,15.722210,1.000409,2.462380,0.530345,1.126364,2.862655,2.081396,0.861369,1.446147,13.028444,0.000497,-0.012821,2.668556,0.000497,0.012821,1.000000
1374.000000,94.851707,EKF,0.726141,1.787569,0.683575,0.584716,2.103907,1.576857,0.477531,1.350016,0.915305,2.170887,0.793330,0.651240,2.682041,1.967493,0.573950,1.694663,0.000000,0.000000,0.000000,0.000000,0.000000,0.000000,0.000000,0.000000,8.015509,24.763131,10.547789,6.702184,29.365657,20.744258,6.537183,20.092830,1.020386,2.484879,0.670537,1.039530,2.751500,1.969334,0.721242,1.608032,13.028000,0.000000,,2.669000,0.000000,,1.000000
1374.000000,94.851707,EKF,0.588515,1.698521,0.552041,0.640712,3.861509,2.043545,0.485284,1.093368,0.692833,2.007304,0.746363,0.785780,4.689484,2.392287,0.590181,1.408191,0.000000,0.000000,0.000000,0.000000,0.000000,0.000000,0.000000,0.000000,6.904080,23.107406,6.390293,8.195551,46.565365,27.335344,7.814366,15.412457,0.965782,2.312161,0.750847,0.853679,3.297956,2.119261,0.555408,1.610940,13.028000,0.000000,,2.669000,0.000000,,1.000000
1384.500000,94.851707,EKF,0.675131,2.234588,0.609964,0.693758,4.214646,2.424799,0.531575,0.647666,0.791941,2.331944,0.812231,0.866685,5.202018,2.639739,0.614235,0.806620,0.000000,0.000000,0.000000,0.000000,1.000000,0.000000,0.000000,0.000000,7.984324,22.865050,7.872734,8.264660,56.565630,25.071433,6.058797,9.917452,0.796591,2.203946,0.772104,0.767457,4.075979,2.331539,0.568930,1.400064,13.029778,0.001988,0.190476,2.673000,0.004472,0.428571,1.000000
1412.000000,94.851707,EKF,0.854336,2.057931,0.640856,0.555891,3.773553,1.876842,0.596812,0.941437,0.904887,2.328723,0.758422,0.664750,4.771155,2.167539,0.670603,1.162823,0.000000,0.000000,0.000000,0.000000,1.000000,0.000000,0.000000,0.000000,8.173979,22.988323,9.252155,7.508041,48.331575,20.879856,7.031431,13.236775,0.757889,2.223798,0.780862,0.768624,4.760256,2.401774,0.594955,1.116201,13.035000,0.002828,0.184211,2.675111,0.003213,-0.263158,1.000000
1430.000000,94.851707,EKF,0.793472,1.588232,0.520427,0.605217,2.749368,1.317391,0.488449,1.182391,0.856020,1.974930,0.631289,0.760014,3.406859,1.414309,0.575501,1.398757,0.000000,0.000000,0.000000,0.000000,0.000000,0.000000,0.000000,0.000000,7.997131,22.056127,7.212461,7.613686,38.748000,12.475035,7.020433,14.526557,0.807596,2.237788,0.774447,0.730245,4.736534,2.200487,0.595415,1.060355,13.040000,0.003916,0.204545,2.669667,0.002906,-0.181818,1.000000
1454.000000,94.851707,EKF,0.835829,1.863092,0.486771,0.539516,3.468609,1.589339,0.480223,0.954641,1.004628,2.221945,0.586838,0.724598,4.255104,1.679213,0.694899,1.226914,0.000000,0.000000,0.000000,0.000000,0.000000,0.000000,0.000000,0.000000,12.596567,23.633042,6.336267,6.977077,43.314014,16.009289,6.223501,10.608361,0.908194,2.205634,0.674601,0.706828,4.258247,1.870976,0.578404,1.267177,13.047222,0.004637,0.272727,2.667333,0.000816,0.000000,1.000000
1476.500000,94.851707,EKF,0.499317,1.864164,0.528179,0.685069,3.448448,1.638964,0.649039,0.569113,0.619946,2.120661,0.655578,0.867186,4.359091,1.741831,0.884762,0.589818,0.000000,0.000000,0.000000,0.000000,0.000000,0.000000,0.000000,0.000000,7.181027,21.142220,8.103550,8.866289,48.822298,15.864225,7.410762,5.196087,0.910575,2.139687,0.582673,0.766442,3.932584,1.666420,0.617492,1.243869,13.050889,0.000314,0.032258,2.667778,0.000629,0.064516,1.000000
1509.000000,94.851707,EKF,0.440851,1.898524,0.431646,0.854700,4.354675,1.820828,0.822147,0.691835,0.502857,1.994937,0.595988,0.990849,5.246726,1.864097,0.946711,0.730908,0.000000,0.000000,0.000000,0.000000,0.000000,0.000000,0.000000,0.000000,5.451488,18.774770,7.104419,8.355111,58.137891,16.400107,10.209640,6.694509,0.823476,2.083272,0.578233,0.848870,4.373932,1.692023,0.769323,0.978167,13.052889,0.001792,0.138889,2.665444,0.002362,-0.083333,1.000000
1535.500000,94.851707,EKF,0.441865,1.743378,0.360552,0.540877,4.325610,1.543502,0.580673,1.111481,0.572957,1.911319,0.468400,0.788293,5.190520,1.725347,0.666559,1.321762,0.000000,0.000000,0.000000,0.000000,0.000000,0.000000,0.000000,0.000000,5.632111,18.762378,4.663523,7.735692,50.765296,19.028704,7.434253,13.471897,0.667196,2.005974,0.583195,0.874432,4.933944,1.764618,0.872365,0.841014,13.054222,0.001397,-0.044444,2.663444,0.001066,-0.022222,1.000000
1555.500000,94.851707,EKF,0.481063,2.016591,0.489005,0.542887,5.724883,1.593164,0.544872,1.127005,0.615901,2.168715,0.620516,0.765172,6.454917,1.742273,0.601227,1.432375,0.000000,0.000000,0.000000,0.000000,0.000000,0.000000,0.000000,0.000000,5.553774,21.218799,6.746526,8.622117,59.914333,16.352848,5.346219,14.229669,0.576069,1.993395,0.528842,0.864748,5.536959,1.761388,0.823093,1.093911,13.050667,0.003496,-0.230769,2.661778,0.001474,-0.102564,1.000000
1578.000000,94.851707,EKF,0.612029,1.754855,0.441525,0.785410,4.029608,1.781930,0.771391,1.203394,0.738774,1.926200,0.600274,0.957405,4.658069,1.994994,0.920005,1.630335,0.000000,0.000000,0.000000,0.000000,0.000000,0.000000,0.000000,0.000000,7.572618,19.017547,6.525714,11.391766,46.470029,21.066023,11.006855,16.852798,0.602822,2.055872,0.526282,0.839128,5.683766,1.790351,0.781985,1.439596,13.044444,0.003804,-0.361111,2.662000,0.002000,0.083333,1.000000
1610.000000,94.851707,EKF,0.630292,1.533054,0.356836,0.554897,4.267193,1.928188,0.949393,0.973533,0.787059,1.722074,0.425941,0.702640,5.410879,2.229280,1.138366,1.320701,0.000000,0.000000,0.000000,0.000000,0.000000,0.000000,0.000000,0.000000,9.594783,16.818626,4.518099,8.265501,61.962257,23.286823,10.799211,9.693072,0.691231,1.993890,0.544426,0.811139,5.654907,1.952396,0.852248,1.539938,13.043889,0.003213,0.086957,2.665889,0.002025,0.130435,1.000000
1629.000000,94.851707,EKF,0.612468,1.566889,0.435852,0.717198,3.899309,1.561433,0.677849,1.391556,0.764375,1.862557,0.506991,0.853943,5.111750,1.801231,0.891915,1.571782,0.000000,0.000000,0.000000,0.000000,0.000000,0.000000,0.000000,0.000000,6.583882,19.125586,6.412571,8.758975,59.904026,20.318635,9.200992,14.463817,0.742042,1.865364,0.530068,0.800205,5.635728,2.073140,0.941322,1.518473,13.047778,0.002043,0.194444,2.669111,0.001523,0.111111,1.000000
1653.500000,94.851707,EKF,0.676222,2.060582,0.480663,0.867753,5.020660,1.731543,0.720108,1.120387,0.939942,2.186017,0.573376,0.963579,6.061438,1.984288,0.863284,1.389699,0.000000,0.000000,0.000000,0.000000,1.000000,0.000000,0.000000,0.000000,9.375051,22.426164,6.633729,8.603261,56.379535,20.312626,9.809324,13.070882,0.815014,1.867078,0.511951,0.831333,5.792188,2.045030,0.938582,1.511823,13.052111,0.003107,0.216216,2.667778,0.002485,-0.135135,1.000000
1675.500000,94.851707,EKF,0.715947,1.678633,0.631964,0.761381,4.335894,1.635507,0.970387,0.869010,1.026126,1.821502,0.745570,0.827672,5.101943,1.923109,1.045902,1.146136,0.000000,0.000000,0.000000,0.000000,0.000000,0.000000,0.000000,0.000000,9.479304,19.284360,8.652988,8.120102,57.629678,21.226923,9.821010,10.090134,0.909008,1.934115,0.573232,0.878488,5.762196,1.937247,0.914784,1.450757,13.055333,0.000667,0.051282,2.665444,0.000497,0.000000,1.000000
1712.000000,94.851707,EKF,0.533562,1.675499,0.466722,0.779958,4.644005,1.762026,0.723902,0.638979,0.690110,1.911239,0.612704,0.884967,5.471367,2.016228,0.868176,0.781535,0.000000,0.000000,0.000000,0.000000,1.000000,0.000000,0.000000,0.000000,4.816728,19.805498,7.036466,8.855526,61.321209,20.416397,7.967764,8.992892,0.926796,1.942718,0.621518,0.881682,5.476367,1.924078,0.886245,1.232903,13.057333,0.002055,-0.052632,2.665333,0.001155,0.078947,1.000000
1729.500000,94.851707,EKF,0.596800,1.613634,0.391009,0.594511,4.607105,1.482614,0.925766,0.792439,0.662163,1.921432,0.522057,0.759591,5.159258,1.760951,1.079425,0.913948,0.000000,0.000000,0.000000,0.000000,1.000000,0.000000,0.000000,0.000000,5.502508,19.602648,4.782235,7.308042,51.986384,18.882123,8.679410,8.535408,0.816163,1.892820,0.607825,0.830936,5.300932,1.924427,0.930878,0.923836,13.056333,0.002494,-0.066667,2.666889,0.001286,0.066667,1.000000
1754.000000,94.851707,EKF,0.509889,1.942068,0.444698,0.614395,4.524733,1.538816,0.738993,0.696667,0.562308,2.155910,0.606918,0.751281,5.537909,1.849701,0.821726,0.788914,0.000000,0.000000,0.000000,0.000000,0.000000,0.000000,0.000000,0.000000,5.337568,20.235565,5.286468,9.418095,53.371100,17.742260,9.231225,8.621742,0.662537,1.972578,0.579437,0.798251,5.348740,1.877331,0.966546,0.817634,13.054000,0.001633,-0.090909,2.667333,0.000471,0.000000,1.000000
1777.000000,94.851707,EKF,0.678602,1.760176,0.292376,0.667625,3.880838,1.420110,0.395708,1.030171,0.786069,1.954305,0.383827,0.756977,4.513109,1.722934,0.475646,1.271376,0.000000,0.000000,0.000000,0.000000,1.000000,0.000000,0.000000,0.000000,10.324708,20.044260,2.672783,7.364713,52.482657,18.213268,5.743670,9.506082,0.625421,2.049104,0.538294,0.743490,5.322716,1.792409,0.909759,0.858075,13.050000,0.003055,-0.218750,2.670778,0.003794,0.250000,1.000000
1809.500000,94.851707,EKF,0.598230,1.869704,0.415695,0.884115,3.474033,1.985792,0.427252,1.300305,0.724875,2.012028,0.484857,1.021781,4.301057,2.321994,0.584508,1.488715,0.000000,0.000000,0.000000,0.000000,0.000000,0.000000,0.000000,0.000000,8.558570,20.357794,3.404927,10.243861,46.780318,24.088451,6.163697,15.472882,0.664280,2.044441,0.505531,0.779441,5.058641,1.878207,0.732594,1.093994,13.042222,0.004315,-0.200000,2.675667,0.000667,0.057143,1.000000
1832.000000,94.851707,EKF,0.840109,1.758124,0.574527,0.997564,3.686454,2.076022,0.691240,0.987688,1.072638,2.080073,0.649517,1.105679,4.646024,2.458333,0.915488,1.152933,0.000000,0.000000,0.000000,0.000000,0.000000,0.000000,0.000000,0.000000,12.189681,20.176930,7.568081,10.426919,51.621786,25.640947,10.883444,12.812251,0.806369,2.040784,0.518055,0.923222,4.901788,2.116176,0.695010,1.302111,13.040000,0.001563,0.105263,2.674889,0.001853,-0.105263,1.000000
1855.500000,94.851707,EKF,0.913273,2.089936,0.416374,0.546516,4.646411,1.927876,0.384341,0.946129,1.097700,2.326471,0.499605,0.749522,5.626300,2.432127,0.421273,1.199139,0.000000,0.000000,0.000000,0.000000,0.000000,0.000000,0.000000,0.000000,11.596129,20.428836,5.492195,4.917028,50.992199,20.020346,3.863916,11.826844,0.960301,2.091728,0.562264,0.944090,4.916530,2.252661,0.750359,1.322466,13.043444,0.002543,0.153846,2.672111,0.001100,-0.076923,1.000000
1874.000000,94.851707,EKF,0.650033,1.743527,0.304290,0.711712,4.431513,1.831063,0.475310,1.009617,0.780797,2.039092,0.330844,0.917575,5.388088,2.328295,0.612370,1.189088,0.000000,0.000000,0.000000,0.000000,1.000000,0.000000,0.000000,0.000000,9.648022,22.349054,3.363614,9.536610,61.123931,25.100533,6.296711,12.005305,0.970948,2.109986,0.537306,0.897508,5.109470,2.277034,0.745040,1.216111,13.049111,0.003784,0.250000,2.669556,0.001892,-0.113636,1.000000
1910.000000,94.851707,EKF,0.690295,1.751001,0.253864,0.973271,4.128695,1.748516,0.469167,1.133739,0.813623,2.002317,0.292574,1.093417,5.069143,2.071662,0.665660,1.409297,0.000000,0.000000,0.000000,0.000000,2.000000,0.000000,0.000000,0.000000,8.886319,19.308440,2.559611,11.181344,69.747084,21.720391,5.457722,13.424677,0.869146,2.082418,0.411842,0.889868,5.216803,2.241365,0.644271,1.253055,13.053222,0.001133,-0.043478,2.666333,0.001155,-0.065217,1.000000
1933.500000,94.851707,EKF,0.747456,1.583479,0.448849,0.919080,3.472621,1.743656,0.645764,1.122172,0.925533,1.792131,0.536252,0.994171,4.195270,2.021944,0.838283,1.340860,0.000000,0.000000,0.000000,0.000000,1.000000,0.000000,0.000000,0.000000,10.875240,17.833043,6.531387,12.437293,52.963237,20.641609,9.450432,13.374747,0.762934,2.003136,0.369848,0.978676,5.086557,2.216449,0.669791,1.339588,13.052333,0.001563,-0.022222,2.664333,0.001826,-0.088889,1.000000
1953.500000,94.851707,EKF,0.750606,2.137037,0.471305,0.675381,3.832683,1.831654,0.589841,1.028060,0.902691,2.616138,0.571629,0.763868,4.931000,2.119711,0.758059,1.244177,0.000000,0.000000,0.000000,0.000000,1.000000,0.000000,0.000000,0.000000,11.244866,24.552221,5.724676,8.266267,50.135296,19.258599,7.292312,13.202763,0.820814,2.102819,0.463743,0.954452,5.021149,2.134412,0.730754,1.375401,13.051667,0.000816,0.000000,2.662222,0.001548,-0.081081,1.000000
1976.000000,94.851707,EKF,0.721722,1.913569,0.401942,0.682379,3.522379,1.594292,0.218019,0.791879,0.804545,2.202832,0.466229,0.838578,4.418022,2.006523,0.311255,1.092221,0.000000,0.000000,0.000000,0.000000,0.000000,0.000000,0.000000,0.000000,9.381559,22.966597,3.770793,10.242620,43.258487,20.315469,3.263892,11.304823,0.834293,2.255692,0.517221,0.857147,4.812114,2.023982,0.684711,1.273416,13.049889,0.001792,-0.131579,2.664111,0.002601,0.157895,1.000000
2015.500000,94.851707,EKF,0.623817,1.966195,0.515266,0.797857,4.557553,1.968644,0.240300,1.101476,0.736605,2.290950,0.585560,0.968674,5.911552,2.417541,0.391061,1.441305,0.000000,0.000000,0.000000,0.000000,0.000000,0.000000,0.000000,0.000000,8.668009,24.972385,5.140717,10.243611,68.913594,25.237517,2.980019,13.219496,0.814587,2.374341,0.535099,0.821963,4.903700,2.109136,0.525241,1.184939,13.044444,0.003236,-0.177778,2.665444,0.001832,-0.133333,1.000000
2034.500000,94.851707,EKF,0.532905,1.760247,0.644450,0.877789,5.145546,1.510843,0.563483,1.122537,0.646977,2.173716,0.709509,0.987074,6.358158,1.886902,0.720064,1.383732,0.000000,0.000000,0.000000,0.000000,1.000000,0.000000,0.000000,0.000000,6.553179,21.878085,9.475801,9.635981,72.325979,18.686333,7.855143,10.519579,0.738733,2.323402,0.585829,0.866594,5.470680,2.177098,0.481935,1.254782,13.040889,0.000875,-0.027027,2.662111,0.002079,-0.135135,1.000000
2058.500000,94.851707,EKF,0.654166,2.361635,0.451442,0.840131,4.743939,2.057799,0.694312,0.927948,0.773705,2.778524,0.569642,1.035460,5.856740,2.466988,0.839359,1.184371,0.000000,0.000000,0.000000,0.000000,2.000000,0.000000,0.000000,0.000000,10.242726,24.826630,5.307405,11.626337,62.340007,22.701940,7.829686,10.324685,0.732912,2.297515,0.622228,0.915853,5.829982,2.243556,0.624075,1.351784,13.040778,0.000416,0.027027,2.658889,0.002079,-0.135135,1.000000
2076.500000,94.851707,EKF,0.879828,2.235841,0.473248,0.656291,4.495720,2.180906,0.700908,0.811773,0.965125,2.655841,0.574423,0.883424,5.430278,2.494500,0.819895,1.037127,0.000000,0.000000,0.000000,0.000000,1.000000,0.000000,0.000000,0.000000,10.937537,27.614260,5.636081,9.238671,56.797047,26.492778,9.106424,9.749303,0.779698,2.441079,0.593908,0.932900,5.845767,2.293818,0.748966,1.270110,13.043667,0.002981,0.139535,2.659111,0.002846,0.046512,1.000000
2113.000000,94.851707,EKF,0.759824,1.973500,0.734285,0.596090,3.911977,2.074981,0.452220,0.910788,0.907225,2.357068,0.837231,0.719977,4.584477,2.504324,0.563619,1.081120,0.000000,0.000000,0.000000,0.000000,1.000000,0.000000,0.000000,0.000000,8.475584,26.804207,10.005578,6.577079,62.455933,30.305051,5.524496,12.440326,0.842668,2.535978,0.642111,0.890963,5.353424,2.423888,0.754898,1.127190,13.051000,0.004000,0.260870,2.662000,0.000000,0.000000,1.000000
2131.500000,94.851707,EKF,0.363588,2.123809,0.513282,0.693107,3.723336,2.264371,0.602959,1.095270,0.517783,2.512902,0.550266,0.778914,4.636931,2.670626,0.672799,1.319386,0.000000,0.000000,0.000000,0.000000,2.000000,0.000000,0.000000,0.000000,4.538766,29.767837,6.292305,6.186644,61.168870,28.131488,5.011723,13.731821,0.805057,2.579850,0.721562,0.818708,5.087226,2.599550,0.704247,1.105754,13.055889,0.002807,0.027027,2.662444,0.000831,0.054054,1.000000
2156.000000,94.851707,EKF,0.715674,2.512188,0.310833,0.986351,3.955242,2.762508,0.862973,1.164723,1.017143,2.914027,0.366243,1.156804,4.801723,3.127292,0.915043,1.461300,0.000000,0.000000,0.000000,0.000000,1.000000,0.000000,0.000000,0.000000,9.320875,30.963835,3.965374,9.451043,49.426630,29.081405,8.015955,11.464478,0.791040,2.551126,0.686310,0.799698,4.762931,2.749197,0.729587,1.190380,13.057333,0.001826,-0.026316,2.662222,0.001030,0.000000,1.000000
2177.000000,94.851707,EKF,1.194742,2.442378,0.563206,0.866308,4.160250,2.421762,0.624190,1.348728,1.405100,2.862192,0.765872,1.081374,4.836478,2.796901,0.680572,1.567585,0.000000,0.000000,0.000000,0.000000,1.000000,0.000000,0.000000,0.000000,14.374105,30.729215,6.725834,11.596237,60.181339,33.486830,7.391187,13.922544,0.968912,2.643642,0.558696,0.936764,4.678285,2.838196,0.784107,1.354597,13.054000,0.004472,-0.225000,2.659667,0.002404,-0.100000,1.000000
2214.500000,94.851707,EKF,0.895805,2.181753,0.724098,0.662824,3.223951,2.305423,0.497942,0.977567,1.112629,2.578322,0.892177,0.808714,3.870186,2.926663,0.605043,1.165701,0.000000,0.000000,0.000000,0.000000,0.000000,0.000000,0.000000,0.000000,11.687532,28.722798,9.646457,8.180413,49.552860,39.256296,6.653421,11.645567,1.174573,2.713424,0.620566,0.998940,4.530904,2.864898,0.770779,1.396787,13.045556,0.003304,-0.081081,2.659556,0.002362,0.081081,1.000000
2236.500000,94.851707,EKF,0.622786,2.122885,0.550527,0.997099,3.742200,1.992497,0.722233,1.278294,0.760671,2.547330,0.663745,1.072555,4.658438,2.489860,0.980226,1.453154,0.000000,0.000000,0.000000,0.000000,1.000000,0.000000,0.000000,0.000000,8.735637,28.979912,6.566761,10.563290,57.774707,30.883981,10.618271,12.417294,1.163372,2.729395,0.741138,1.008900,4.459063,2.815280,0.756779,1.415427,13.044000,0.001826,0.018868,2.661778,0.001931,0.056604,1.000000
2256.000000,94.851707,EKF,0.635002,2.720576,0.632958,0.669418,4.240209,2.368423,0.774738,1.074334,0.792986,3.213124,0.763940,0.810595,4.985072,2.802249,0.983294,1.178540,0.000000,0.000000,0.000000,0.000000,1.000000,0.000000,0.000000,0.000000,8.362858,32.440135,7.265504,6.399772,63.078143,28.694646,11.057161,11.459145,0.948394,2.768617,0.749943,0.945019,4.517371,2.719552,0.823637,1.373455,13.045778,0.001548,0.000000,2.664889,0.002726,0.142857,1.000000
2280.000000,94.851707,EKF,0.627609,2.230098,0.569677,0.718157,3.543388,2.082684,0.411661,0.804356,0.839024,2.642185,0.771663,0.978446,4.301661,2.429948,0.508452,1.013303,0.000000,0.000000,0.000000,0.000000,1.000000,0.000000,0.000000,0.000000,8.903731,28.870887,7.754805,10.992044,52.673144,28.036979,5.752098,12.260108,0.774190,2.802784,0.712893,0.915985,4.572092,2.612906,0.815278,1.315334,13.047667,0.001247,0.066667,2.666778,0.000416,0.000000,1.000000
2311.500000,94.851707,EKF,0.654893,1.855575,0.436666,0.823915,2.648731,1.970401,0.563833,0.785699,0.911274,2.239465,0.588246,1.046679,3.178304,2.442331,0.661602,0.984207,0.000000,0.000000,0.000000,0.000000,0.000000,0.000000,0.000000,0.000000,8.645006,25.866723,5.995078,12.329376,35.881344,24.966928,5.442999,10.075841,0.757094,2.731690,0.717066,0.908463,4.247762,2.544831,0.684694,1.209069,13.042556,0.005795,-0.270270,2.667222,0.000629,0.054054,1.000000
2334.500000,94.851707,EKF,0.701221,2.179427,0.472134,0.754830,3.288648,2.577282,0.652823,1.357949,0.912384,2.572776,0.538410,0.939981,3.849021,3.059130,0.742951,1.469929,0.000000,0.000000,0.000000,0.000000,0.000000,0.000000,0.000000,0.000000,10.235937,29.412869,5.391237,10.936850,42.797395,31.372574,6.746195,15.716936,0.789387,2.602335,0.684879,0.974255,3.889631,2.693463,0.620587,1.193457,13.039000,0.001563,0.108108,2.668333,0.001155,0.027027,1.000000
2359.500000,94.851707,EKF,0.803091,2.331986,0.708337,0.630279,2.746942,2.567005,0.544208,1.395555,0.940432,2.780556,0.771899,0.764186,3.331532,3.092586,0.612379,1.480966,0.000000,0.000000,0.000000,0.000000,0.000000,0.000000,0.000000,0.000000,12.445979,25.237408,9.592331,6.917217,38.281279,29.715172,5.210737,12.292893,0.858782,2.543346,0.631960,0.971962,3.735026,2.865184,0.673867,1.338468,13.042111,0.002079,0.111111,2.667667,0.002108,-0.133333,1.000000
2376.000000,94.851707,EKF,0.652939,2.297059,0.603183,0.701990,2.534469,2.095884,0.589071,1.278937,0.774310,2.661158,0.714739,0.792797,3.019962,2.540504,0.685869,1.447828,0.000000,0.000000,0.000000,0.000000,0.000000,0.000000,0.000000,0.000000,9.533205,27.637687,8.609763,8.211841,30.893091,27.483821,7.514205,11.273522,0.877023,2.570347,0.656683,0.854397,3.535863,2.913840,0.687875,1.444043,13.041000,0.003771,-0.095238,2.664556,0.002166,-0.119048,1.000000
2413.000000,94.851707,EKF,0.610087,2.644340,0.403906,0.817619,2.780197,2.057239,0.362457,0.977513,0.696004,3.049347,0.475029,0.971978,3.081387,2.430291,0.537879,1.247019,0.000000,0.000000,0.000000,0.000000,0.000000,0.000000,0.000000,0.000000,8.023506,39.275074,4.793930,12.704954,32.255550,30.389195,4.302030,11.025398,0.817316,2.684851,0.688661,0.834323,3.219242,2.721673,0.644799,1.400584,13.036667,0.002108,0.108696,2.665667,0.002667,0.173913,1.000000
2431.500000,94.851707,EKF,0.638982,2.462520,0.397823,1.074422,2.816311,2.161940,0.265999,0.926181,0.853768,2.951677,0.442623,1.227649,3.023003,2.642438,0.455284,1.237810,0.000000,0.000000,0.000000,0.000000,0.000000,0.000000,0.000000,0.000000,8.179088,31.094531,4.368663,13.435679,38.959487,30.066962,3.709518,10.007486,0.725229,2.872316,0.610067,0.960441,3.028435,2.649394,0.599318,1.324350,13.039889,0.003478,0.228571,2.669444,0.001771,0.085714,1.000000
2456.500000,94.851707,EKF,0.997876,2.439575,0.461985,1.157738,2.460473,2.163145,0.504443,1.262884,1.265659,2.900865,0.533003,1.385728,3.048391,2.779866,0.645292,1.609423,0.000000,0.000000,0.000000,0.000000,0.000000,0.000000,0.000000,0.000000,12.992976,28.758531,6.227753,13.598992,34.805781,26.226229,6.933730,14.819421,0.878978,2.960535,0.530381,1.173905,3.145342,2.656511,0.564622,1.374307,13.044889,0.003635,0.216216,2.671333,0.000816,0.027027,1.000000
2477.500000,94.851707,EKF,0.877701,2.228659,0.435447,0.809717,2.986666,2.112690,0.737637,1.064798,1.023796,2.775251,0.543093,1.040515,3.608259,2.537883,0.946725,1.272628,0.000000,0.000000,0.000000,0.000000,0.000000,0.000000,0.000000,0.000000,12.305823,32.013019,4.138320,11.403099,34.430453,27.442899,10.295284,13.310331,1.098300,2.860591,0.530139,1.246437,3.267885,2.588698,0.620471,1.428531,13.047778,0.002485,0.128205,2.672444,0.000497,0.025641,1.000000
2514.500000,94.851707,EKF,0.824443,1.946562,0.378961,0.817529,2.886208,2.014920,0.693401,1.282467,0.983988,2.565808,0.431773,0.993049,3.447578,2.629952,0.901770,1.406737,0.000000,0.000000,0.000000,0.000000,0.000000,0.000000,0.000000,0.000000,11.970664,30.690707,4.783166,10.984995,33.055510,31.214775,9.060429,14.791809,1.127661,2.722771,0.534688,1.175181,3.362083,2.529835,0.767925,1.436929,13.044556,0.002986,0.027027,2.674222,0.001618,-0.027027,1.000000
2533.000000,94.851707,EKF,0.787667,2.037741,0.313710,0.520475,3.479067,1.944607,0.627097,1.080443,0.954882,2.516620,0.361451,0.594572,4.021253,2.565212,0.752100,1.240586,0.000000,0.000000,0.000000,0.000000,0.000000,0.000000,0.000000,0.000000,10.888735,30.313661,3.806841,5.466271,44.622813,30.364954,6.323739,12.829535,1.011264,2.688083,0.481126,0.997079,3.587310,2.575306,0.853031,1.398679,13.046778,0.004516,0.260870,2.673333,0.001886,-0.086957,1.000000
2559.500000,94.851707,EKF,0.672741,2.503365,0.318720,0.666770,2.616603,2.294369,0.841906,1.028471,0.767348,2.950466,0.406296,0.816176,3.047659,2.818686,0.938850,1.197388,0.000000,0.000000,0.000000,0.000000,0.000000,0.000000,0.000000,0.000000,6.962232,30.891678,4.138973,6.807126,33.004587,29.647179,10.350544,10.780080,0.893460,2.721206,0.435552,0.810279,3.674022,2.751176,0.887102,1.330052,13.050778,0.002820,-0.081081,2.673444,0.002061,0.135135,1.000000
2576.000000,94.851707,EKF,0.681957,2.050981,0.482253,0.671957,2.799932,2.095072,0.552302,0.960048,0.742664,2.485459,0.641892,0.833361,3.430580,2.643619,0.633108,1.148902,0.000000,0.000000,0.000000,0.000000,0.000000,0.000000,0.000000,0.000000,5.472377,28.263649,7.143585,9.812431,32.854814,28.302707,6.716354,11.437131,0.844796,2.708132,0.504885,0.730499,3.547537,2.767735,0.820611,1.236821,13.045667,0.004967,-0.315789,2.678000,0.003018,0.236842,1.000000
2611.500000,94.851707,EKF,0.413816,1.792021,0.586205,0.681494,2.677665,1.893198,0.526119,0.860698,0.463956,2.453106,0.721435,0.845734,3.416667,2.614985,0.561707,1.150528,0.000000,0.000000,0.000000,0.000000,0.000000,0.000000,0.000000,0.000000,3.546440,30.498716,7.135193,10.143181,39.059960,32.268426,5.511343,12.342446,0.729302,2.632039,0.601856,0.775818,3.384312,2.683825,0.731782,1.202678,13.043778,0.002897,0.028571,2.680889,0.000314,-0.028571,1.000000
2634.500000,94.851707,EKF,0.460876,1.718484,0.461521,0.898056,2.539369,2.032070,0.475274,1.004509,0.518456,2.308970,0.552627,1.115874,3.062469,2.460524,0.515050,1.313496,0.000000,0.000000,0.000000,0.000000,0.000000,0.000000,0.000000,0.000000,5.651672,29.307524,6.002671,12.737257,28.000467,31.775158,6.213488,15.926415,0.610481,2.511555,0.638506,0.902626,3.291248,2.611335,0.592019,1.287336,13.041222,0.004709,-0.324324,2.682556,0.002315,0.135135,1.000000
2657.500000,94.851707,EKF,0.498676,2.018764,0.352668,1.178797,1.975457,2.280477,0.660167,1.157844,0.584081,2.505387,0.444807,1.446711,2.570515,2.517162,0.833843,1.401954,0.000000,0.000000,0.000000,0.000000,0.000000,0.000000,0.000000,0.000000,6.845076,25.897527,2.913886,14.535221,29.504998,24.976496,11.070242,13.750353,0.517343,2.446741,0.561837,1.152354,3.136368,2.569796,0.646108,1.367401,13.034000,0.003055,-0.205128,2.687222,0.002780,0.179487,1.000000
2676.500000,94.851707,EKF,0.594771,2.382745,0.463948,0.659725,2.885712,1.956448,0.881862,1.558779,0.672246,2.850249,0.555986,0.757910,3.548113,2.300746,1.011326,1.882132,0.000000,0.000000,0.000000,0.000000,0.000000,0.000000,0.000000,0.000000,6.499367,29.563900,5.622768,6.721999,38.193068,24.750355,13.439108,16.894882,0.544427,2.477118,0.511276,1.255419,3.009470,2.473871,0.797834,1.501334,13.031000,0.001491,-0.093023,2.690889,0.001792,0.139535,1.000000
2712.500000,94.851707,EKF,0.496672,2.116083,0.381608,0.763551,2.445153,1.611968,0.870813,1.344028,0.606732,2.673221,0.446697,0.915883,3.216231,1.979479,1.003434,1.711032,0.000000,0.000000,0.000000,0.000000,0.000000,0.000000,0.000000,0.000000,5.965717,30.983952,4.913933,8.908080,32.087280,21.680910,11.732787,16.927742,0.600309,2.577327,0.512198,1.142830,3.193444,2.312723,0.905245,1.660568,13.035556,0.004450,0.276596,2.690667,0.001333,-0.085106,1.000000
2731.500000,94.851707,EKF,0.457080,1.877384,0.316634,0.740782,2.975926,1.458769,0.794896,0.798378,0.595870,2.393278,0.392722,0.884226,3.589062,1.820640,0.953442,1.126233,0.000000,0.000000,0.000000,0.000000,0.000000,0.000000,0.000000,0.000000,6.407875,28.794728,3.507921,10.540780,32.886259,20.660300,10.204688,11.183496,0.605017,2.663638,0.500231,0.929184,3.406008,2.155063,0.928028,1.657645,13.042667,0.003496,0.243243,2.687556,0.002587,-0.189189,1.000000
2792.500000,94.851707,EKF,0.580222,2.121886,0.479215,0.851015,2.888076,1.983767,0.634205,0.758668,0.733465,2.533031,0.627172,1.006663,3.317549,2.321295,0.818963,1.147172,0.000000,0.000000,0.000000,0.000000,0.000000,0.000000,0.000000,0.000000,8.788341,26.751855,6.510757,11.517578,33.958762,23.950657,10.380439,9.386913,0.627901,2.627046,0.447714,0.855998,3.420765,2.113464,0.911963,1.432356,13.044333,0.006498,-0.153153,2.684889,0.002233,0.000000,1.000000
2803.000000,94.851707,EKF,0.754567,2.169022,0.583719,0.822180,3.003767,1.848680,0.724332,0.437898,0.863569,2.470643,0.713655,1.027840,3.282584,2.147401,0.980779,0.516869,0.000000,0.000000,0.000000,0.000000,0.000000,0.000000,0.000000,0.000000,8.627299,23.603132,9.820177,13.249042,33.030415,21.633936,9.376826,5.190686,0.731897,2.475203,0.515467,0.938902,3.367629,2.118976,0.892388,1.065376,13.033556,0.009370,-0.255556,2.686444,0.002217,0.044444,1.000000
2848.000000,94.851707,EKF,0.637033,2.022783,0.302003,0.634803,3.368690,1.637765,0.842897,0.907892,0.716384,2.200204,0.407485,0.786801,4.104429,1.848959,1.039229,1.083115,0.000000,0.000000,0.000000,0.000000,0.000000,0.000000,0.000000,0.000000,6.635231,21.975707,3.275416,8.374722,42.714221,19.292657,9.534309,11.742145,0.800243,2.353446,0.587921,0.965686,3.638548,2.080376,0.950180,0.911133,13.027000,0.000000,,2.688000,0.000000,,1.000000
2852.000000,94.851707,EKF,0.577297,1.556120,0.421704,0.579895,3.237495,1.792735,0.383482,1.086379,0.628114,1.749025,0.490408,0.677194,4.297135,1.960871,0.462966,1.175089,0.000000,0.000000,0.000000,0.000000,0.000000,0.000000,0.000000,0.000000,7.872324,16.198205,3.694599,7.426384,35.976602,20.108188,4.530018,12.319370,0.764338,2.191747,0.567880,0.917409,3.831687,2.007571,0.906830,0.950436,13.026111,0.001663,-0.500000,2.688000,0.000000,0.000000,1.000000
2864.000000,94.851707,EKF,0.374331,1.709161,0.388770,0.646371,2.766183,1.575324,0.429666,1.654222,0.416732,1.893743,0.428480,0.755748,3.663825,1.830036,0.518056,2.049232,0.000000,0.000000,0.000000,0.000000,0.000000,0.000000,0.000000,0.000000,4.528802,20.202655,3.844201,7.245649,42.134026,17.377106,4.318272,18.663047,0.633556,2.028427,0.477843,0.782847,3.883836,1.919284,0.757058,1.422254,13.023778,0.001812,-0.093750,2.686444,0.002217,-0.125000,1.000000
2876.000000,94.851707,EKF,0.501732,1.783066,0.305031,0.621864,3.514436,1.831020,0.467195,1.444120,0.589410,1.981403,0.366800,0.832179,4.213307,2.120299,0.606041,1.503108,0.000000,0.000000,0.000000,0.000000,0.000000,0.000000,0.000000,0.000000,5.026758,18.999178,3.957345,8.567222,44.163667,19.710328,6.255055,12.555846,0.553350,1.913045,0.435431,0.774493,3.847175,1.861876,0.584013,1.805938,13.021667,0.001633,-0.078947,2.682889,0.002183,-0.184211,1.000000
2915.500000,94.851707,EKF,0.607759,1.522306,0.423151,0.435787,3.368697,1.698897,0.544811,1.017800,0.755035,1.679326,0.533356,0.541941,4.299086,2.023441,0.693991,1.170563,0.000000,0.000000,0.000000,0.000000,0.000000,0.000000,0.000000,0.000000,6.071377,15.329160,5.063829,5.709546,46.628538,18.036812,7.253668,14.084994,0.559549,1.877376,0.443173,0.794026,3.999844,1.867018,0.601944,1.780887,13.023889,0.003784,0.244444,2.677222,0.003392,-0.133333,1.000000
2938.500000,94.851707,EKF,0.598838,1.552477,0.515844,0.698287,3.963933,2.176585,0.670870,1.074719,0.728525,1.747291,0.585514,0.992322,4.984777,2.254900,0.775669,1.198815,0.000000,0.000000,0.000000,0.000000,0.000000,0.000000,0.000000,0.000000,7.655797,17.740768,5.061815,10.744973,42.191786,21.024587,9.436966,12.646374,0.639061,1.845933,0.474461,0.843696,4.158054,2.008548,0.693117,1.474504,13.031111,0.004748,0.288889,2.674444,0.000497,0.000000,1.000000
2958.500000,94.851707,EKF,0.998610,1.893773,0.476685,1.093253,4.455826,2.082489,0.607231,1.185005,1.394158,2.139141,0.548608,1.292426,5.550777,2.144196,0.733932,1.244582,0.000000,0.000000,0.000000,0.000000,0.000000,0.000000,0.000000,0.000000,13.098465,21.261132,3.962648,14.212689,64.164426,19.299079,8.910480,14.380620,0.980863,1.869845,0.530032,0.966874,4.495273,2.184104,0.758749,1.215232,13.037556,0.003531,0.243243,2.674889,0.000875,0.027027,1.000000
2981.000000,94.851707,EKF,0.832878,2.141226,0.547729,0.746665,4.127125,1.667952,0.814312,1.100108,0.917406,2.257692,0.625998,0.924111,5.060629,1.741050,0.903362,1.249455,0.000000,0.000000,0.000000,0.000000,0.000000,0.000000,0.000000,0.000000,7.662303,21.138691,5.712256,8.962459,53.463921,16.301070,9.892716,14.326068,1.221329,1.996831,0.551305,1.049787,4.930242,2.142931,0.796844,1.181118,13.039444,0.000497,0.000000,2.675333,0.000667,0.026316,1.000000
3017.500000,94.851707,EKF,0.848102,1.593870,0.509551,0.683193,4.751256,1.915974,0.706011,1.045701,0.887577,1.741767,0.567180,0.879632,5.964238,2.111370,0.800960,1.230173,0.000000,0.000000,0.000000,0.000000,1.000000,0.000000,0.000000,0.000000,9.725169,18.664579,5.419170,8.946008,66.700729,19.730606,8.412818,12.469497,1.208641,2.051461,0.558878,1.024824,5.555231,2.080631,0.818580,1.214061,13.042000,0.002749,0.189189,2.673667,0.001333,-0.108108,1.000000
3035.500000,94.851707,EKF,0.722558,1.755205,0.597719,0.566560,5.469006,1.867956,0.596960,0.915036,0.769343,1.973943,0.687389,0.766298,6.911692,2.131516,0.732622,1.061937,0.000000,0.000000,0.000000,0.000000,0.000000,0.000000,0.000000,0.000000,6.896275,19.469161,7.358296,7.648831,60.129769,19.330330,6.739420,11.171411,0.974101,1.999982,0.574768,0.887636,6.056704,2.034476,0.788654,1.251563,13.046889,0.003381,0.200000,2.671000,0.001826,-0.111111,1.000000
3060.500000,94.851707,EKF,0.580603,2.044479,0.523819,0.647564,6.215190,1.680240,0.762001,1.265649,0.686536,2.241373,0.667378,0.779944,7.371155,1.774910,0.843190,1.691906,0.000000,0.000000,0.000000,0.000000,2.000000,0.000000,0.000000,0.000000,5.339443,24.516447,7.239605,7.643105,75.067312,18.777130,7.268766,14.473740,0.811333,2.007035,0.605313,0.829669,6.525725,2.005606,0.772330,1.330415,13.052000,0.003559,0.324324,2.668111,0.001792,-0.162162,1.000000
3078.500000,94.851707,EKF,0.449129,1.663179,0.474976,0.636686,5.574950,1.750249,0.689622,1.407156,0.605764,1.823461,0.536227,0.825175,6.647696,1.949820,0.787263,1.749634,0.000000,0.000000,0.000000,0.000000,1.000000,0.000000,0.000000,0.000000,4.502477,17.197749,6.285291,7.377104,63.406732,20.127177,6.966148,17.386858,0.741156,2.028140,0.624926,0.786777,6.813983,1.921308,0.792128,1.493703,13.053667,0.002357,-0.027027,2.667111,0.001197,0.000000,1.000000
3114.500000,94.851707,EKF,0.464585,1.546629,0.353476,0.888292,4.525975,1.490007,0.493627,1.188149,0.605144,1.721142,0.411157,1.033106,5.226527,1.751119,0.637511,1.273981,0.000000,0.000000,0.000000,0.000000,0.000000,0.000000,0.000000,0.000000,6.040326,16.932887,4.354534,11.493506,47.381601,18.552297,5.313028,11.251843,0.676759,1.954283,0.585080,0.836494,6.573533,1.823691,0.794212,1.568446,13.046667,0.004807,-0.216216,2.673778,0.005202,0.324324,1.000000
3137.500000,94.851707,EKF,0.518117,1.909036,0.377040,0.719438,5.578049,1.786318,0.415344,0.933397,0.681046,2.099976,0.455344,0.888250,6.330483,2.046001,0.477044,1.104308,0.000000,0.000000,0.000000,0.000000,1.000000,0.000000,0.000000,0.000000,5.890687,19.194998,3.782521,10.261132,58.238319,20.243909,3.542104,9.322598,0.653569,1.818859,0.498391,0.934955,6.166015,1.875711,0.690204,1.448773,13.048444,0.006431,0.405405,2.680667,0.002309,0.162162,1.000000
3163.000000,94.851707,EKF,0.539380,1.732712,0.425898,0.593274,3.955574,1.439191,0.517411,1.036915,0.766056,2.057993,0.566370,0.721877,4.823095,1.739335,0.615951,1.295956,0.000000,0.000000,0.000000,0.000000,2.000000,0.000000,0.000000,0.000000,6.668224,22.572433,4.348058,5.850430,51.797780,17.191519,5.235259,10.011330,0.703900,1.867397,0.485769,0.919317,5.704590,1.876374,0.582196,1.246056,13.055111,0.001286,0.000000,2.685222,0.002780,0.145833,1.000000
3178.500000,94.851707,EKF,0.494077,1.851601,0.333604,0.425114,3.668521,1.739895,0.592757,1.141389,0.663896,2.064668,0.423529,0.510669,4.594399,2.052853,0.732521,1.289474,0.000000,0.000000,0.000000,0.000000,2.000000,0.000000,0.000000,0.000000,5.550408,19.958384,2.684954,5.067483,44.883925,21.801835,6.800366,12.009357,0.727549,1.994022,0.509854,0.778628,5.462924,1.953611,0.570887,1.191311,13.055111,0.000994,0.000000,2.688000,0.001491,0.093023,1.000000
3215.500000,94.851707,EKF,0.562651,1.796537,0.414927,0.657250,4.402189,1.452931,0.733257,0.672080,0.676801,1.952776,0.464915,0.922695,5.166366,1.732986,0.936227,0.781070,0.000000,0.000000,0.000000,0.000000,1.000000,0.000000,0.000000,0.000000,7.379932,20.570674,4.131952,7.670703,52.004722,17.051967,8.178945,6.130972,0.705713,2.013978,0.522265,0.684030,5.147082,1.997940,0.732031,1.121768,13.055222,0.000916,-0.066667,2.687889,0.001197,0.066667,1.000000
3234.500000,94.851707,EKF,0.518752,1.742455,0.446539,0.854353,5.753096,1.726109,0.431335,0.713291,0.671489,1.950507,0.494771,1.029282,6.638984,2.026616,0.587416,0.917039,0.000000,0.000000,0.000000,0.000000,0.000000,0.000000,0.000000,0.000000,5.733258,19.006309,4.906908,10.377387,57.927509,19.720472,4.484698,8.297013,0.625109,1.963287,0.486675,0.791256,5.361386,2.020717,0.833539,1.004530,13.052111,0.003381,-0.243243,2.689889,0.002079,0.135135,1.000000
3261.500000,94.851707,EKF,0.751965,1.469260,0.473288,0.634985,5.811433,1.382963,0.428716,1.110826,1.050293,1.866934,0.535368,0.725645,6.772187,1.678387,0.534924,1.322641,0.000000,0.000000,0.000000,0.000000,0.000000,0.000000,0.000000,0.000000,12.497939,21.270999,6.160604,6.600883,71.106629,16.810649,4.163279,15.236309,0.780057,1.894305,0.483044,0.883636,6.024650,1.946752,0.785662,1.027896,13.048667,0.002582,-0.069767,2.690889,0.000737,-0.023256,1.000000
3279.500000,94.851707,EKF,0.801393,2.010282,0.382440,0.579466,5.234211,1.754016,0.697679,0.855340,0.908240,2.407865,0.463532,0.719401,6.259961,1.991817,0.811478,1.174821,0.000000,0.000000,0.000000,0.000000,0.000000,0.000000,0.000000,0.000000,6.542128,24.836212,4.193427,7.125522,65.784502,20.301994,8.045752,11.011805,0.950960,1.994414,0.481195,0.827681,6.422460,1.923751,0.679204,1.135229,13.047889,0.001197,0.000000,2.691000,0.000943,0.024390,1.000000
3317.000000,94.851707,EKF,0.739229,1.678649,0.395494,0.753459,5.207109,1.635964,0.564734,0.756368,0.837402,2.107557,0.475731,0.851470,6.299532,1.986771,0.778689,1.014621,0.000000,0.000000,0.000000,0.000000,1.000000,0.000000,0.000000,0.000000,6.625864,20.268793,4.028212,8.114446,69.938336,21.066610,7.824007,8.520415,1.016641,2.117876,0.485256,0.747536,6.562434,1.970738,0.671847,1.132653,13.047000,0.001491,-0.105263,2.690222,0.001618,-0.105263,1.000000
3335.500000,94.851707,EKF,0.588456,1.970449,0.464737,0.536313,5.089597,2.033105,0.486058,1.231156,0.721344,2.336942,0.565567,0.671217,6.470544,2.368198,0.613476,1.333154,0.000000,0.000000,0.000000,0.000000,1.000000,0.000000,0.000000,0.000000,8.198911,22.839519,6.886314,5.424204,57.241729,22.728940,5.508445,10.357176,0.922456,2.217434,0.505491,0.759100,6.323956,2.080242,0.707376,1.115830,13.042889,0.004748,-0.288889,2.686111,0.004357,-0.244444,1.000000
3359.000000,94.851707,EKF,0.717957,1.721172,0.396941,0.377651,4.989118,1.815909,0.672659,1.696714,0.891407,2.098315,0.468154,0.560231,6.147573,2.209909,0.771979,1.817031,0.000000,0.000000,0.000000,0.000000,2.000000,0.000000,0.000000,0.000000,8.937118,21.994666,5.780092,3.871769,65.917460,23.470812,9.377811,17.720117,0.879310,2.218544,0.508010,0.715715,6.058074,2.181725,0.712641,1.347215,13.037444,0.003201,-0.090909,2.680778,0.003938,-0.204545,1.000000
3378.500000,94.851707,EKF,0.522090,1.464506,0.427730,0.511490,4.482513,1.644929,0.558488,1.241486,0.622582,1.774304,0.472680,0.744993,5.468534,2.066529,0.670800,1.458316,0.000000,0.000000,0.000000,0.000000,2.000000,0.000000,0.000000,0.000000,4.822762,17.842457,6.609092,7.076368,63.625916,21.168852,6.055404,13.943951,0.858211,2.127346,0.493307,0.694270,5.872735,2.203694,0.694289,1.577553,13.039667,0.003232,0.216216,2.679556,0.000685,0.054054,1.000000
3415.500000,94.851707,EKF,0.546460,1.031914,0.622326,0.598812,3.621802,1.457801,0.478968,0.748326,0.632276,1.203593,0.703596,0.745871,4.572183,1.770727,0.590457,0.859377,0.000000,0.000000,0.000000,0.000000,2.000000,0.000000,0.000000,0.000000,5.223543,12.771632,9.830389,7.771629,62.385560,19.067028,5.350964,7.918232,0.803215,1.893674,0.532147,0.715032,5.600849,2.102014,0.691981,1.510559,13.036222,0.006321,-0.435897,2.681000,0.000943,0.025641,1.000000
3440.500000,94.851707,EKF,0.539316,1.635737,0.534212,0.951687,4.868707,2.347284,0.667290,0.909695,0.629132,1.946927,0.670162,1.057225,6.224116,2.675076,0.835456,1.094698,0.000000,0.000000,0.000000,0.000000,2.000000,0.000000,0.000000,0.000000,5.540574,17.883184,7.199713,11.864597,68.432143,25.852577,8.850186,11.848240,0.697092,1.660537,0.613810,0.845205,5.550852,2.129322,0.731887,1.248992,13.028889,0.002685,-0.064516,2.681333,0.000471,-0.032258,1.000000
3460.500000,94.851707,EKF,0.578235,1.692508,0.435718,1.027615,4.951516,2.023028,0.495942,1.108185,0.679346,2.058964,0.558777,1.062824,5.896648,2.344770,0.565694,1.298869,0.000000,0.000000,0.000000,0.000000,2.000000,0.000000,0.000000,0.000000,5.106514,22.731871,6.026507,9.629299,66.013049,27.161885,4.903337,14.034710,0.671564,1.736583,0.632872,0.966278,5.605647,2.275964,0.773821,1.113820,13.026667,0.002108,0.051282,2.681778,0.001133,0.076923,1.000000
3479.000000,94.851707,EKF,1.023638,1.909431,0.456378,0.762973,3.844159,1.664966,0.356333,1.027141,1.158801,2.335946,0.554220,0.860249,4.973991,1.981934,0.402507,1.202028,0.000000,0.000000,0.000000,0.000000,1.000000,0.000000,0.000000,0.000000,10.199479,24.554582,6.019896,6.829624,63.394793,23.144120,3.761254,11.465077,0.809894,2.044480,0.582526,1.010581,5.758360,2.356894,0.716696,1.203173,13.030000,0.005077,0.272727,2.683000,0.001054,0.068182,1.000000
3515.000000,94.851707,EKF,1.102427,2.086555,0.392592,0.469815,3.985105,1.683036,0.407897,0.957937,1.244948,2.584420,0.489795,0.562947,5.159037,1.957872,0.516681,1.082663,0.000000,0.000000,0.000000,0.000000,1.000000,0.000000,0.000000,0.000000,13.420367,29.824245,4.682777,6.056902,65.482993,19.558958,5.154752,11.456815,1.007618,2.344841,0.510497,0.911897,5.588662,2.217881,0.537592,1.213386,13.036444,0.002455,0.086957,2.683111,0.001370,-0.043478,1.000000
3534.000000,94.851707,EKF,0.782468,2.307553,0.510604,0.803228,4.323436,2.182463,0.451128,0.965986,0.929983,2.830928,0.653921,1.064640,5.047926,2.583511,0.547969,1.117334,0.000000,0.000000,0.000000,0.000000,2.000000,0.000000,0.000000,0.000000,11.382262,30.690380,7.820383,9.137687,62.890890,24.139550,6.119082,10.692310,1.110890,2.477062,0.557843,0.789950,5.285250,2.117394,0.457355,1.135719,13.036667,0.000943,-0.055556,2.680889,0.002331,-0.166667,1.000000
3558.500000,94.851707,EKF,0.666558,2.146690,0.314695,0.885744,4.245956,2.035489,0.674746,0.503522,0.799413,2.555363,0.376053,1.101529,4.816983,2.501712,0.774008,0.665859,0.000000,0.000000,0.000000,0.000000,1.000000,0.000000,0.000000,0.000000,8.766986,29.185804,3.831609,12.866277,61.401026,28.444084,8.176058,5.754427,1.014447,2.519333,0.574513,0.873855,4.848573,2.210555,0.571584,1.027730,13.036667,0.000943,0.054054,2.678222,0.001030,-0.054054,1.000000
3580.500000,94.851707,EKF,0.833013,2.026805,0.486759,0.588538,3.811830,2.370766,0.714517,0.581997,0.927566,2.338260,0.511886,0.722116,4.746834,2.654987,0.866070,0.901971,0.000000,0.000000,0.000000,0.000000,2.000000,0.000000,0.000000,0.000000,11.914418,24.682338,4.866502,7.905350,61.610449,29.857263,8.364008,6.731211,0.869558,2.477119,0.560356,0.980279,4.564872,2.441982,0.714022,0.941314,13.040000,0.002749,0.179487,2.677000,0.000943,-0.025641,1.000000
3617.000000,94.851707,EKF,1.021299,2.204599,0.524834,0.628967,3.194138,2.189023,0.640360,1.228438,1.172704,2.634175,0.595110,0.798352,3.764183,2.566122,0.779325,1.453701,0.000000,0.000000,0.000000,0.000000,1.000000,0.000000,0.000000,0.000000,11.953924,30.319642,7.626796,9.213479,47.364697,30.529649,9.876732,13.710020,0.920797,2.546310,0.517274,0.941984,4.445645,2.594767,0.797574,1.006906,13.044111,0.000994,0.052632,2.675556,0.000497,0.000000,1.000000
3635.000000,94.851707,EKF,0.937471,2.433423,0.569312,0.668881,3.720628,2.692130,0.514416,0.916025,1.126362,2.939270,0.670278,0.817155,4.432849,3.264593,0.620707,1.179438,0.000000,0.000000,0.000000,0.000000,1.000000,0.000000,0.000000,0.000000,11.090987,26.357785,7.948358,8.184427,51.310061,34.227742,6.643199,9.596898,1.049997,2.690629,0.561078,0.817809,4.504519,2.778778,0.779937,1.154406,13.045444,0.000831,0.043478,2.675222,0.000786,-0.021739,1.000000
3659.000000,94.851707,EKF,0.779268,2.227342,0.429926,0.742535,3.288734,2.441916,0.694635,1.041521,0.969107,2.624138,0.563935,0.882929,4.164288,2.949064,0.840491,1.313343,0.000000,0.000000,0.000000,0.000000,0.000000,0.000000,0.000000,0.000000,9.158718,28.769692,5.676181,10.798899,43.829954,32.483837,7.851248,14.988504,1.060128,2.742533,0.625634,0.805707,4.222377,2.943972,0.724251,1.235494,13.045778,0.001133,-0.022727,2.673667,0.001633,-0.113636,1.000000
3682.500000,94.851707,EKF,0.850865,2.335396,0.231674,0.645422,3.578227,2.141900,0.857098,1.331465,1.048286,3.001546,0.318924,0.859099,4.327973,2.596678,1.027171,1.568748,0.000000,0.000000,0.000000,0.000000,0.000000,0.000000,0.000000,0.000000,12.037870,35.729074,3.682039,9.107647,55.259458,31.457075,13.532326,18.960049,1.016887,2.767153,0.580620,0.841416,3.968080,2.971380,0.768481,1.312055,13.043222,0.002149,-0.133333,2.672000,0.000816,-0.044444,1.000000
3718.000000,94.851707,EKF,0.802654,1.851697,0.373676,0.815629,3.867121,2.132738,0.727604,0.961685,1.076448,2.549928,0.459465,1.103536,4.785641,2.525489,0.931760,1.208827,0.000000,0.000000,0.000000,0.000000,1.000000,0.000000,0.000000,0.000000,10.357397,29.823228,5.981577,12.324378,66.586293,29.810015,11.549311,13.218780,1.002977,2.774696,0.499358,0.951741,4.081993,2.850948,0.887695,1.373066,13.038889,0.001912,-0.100000,2.672556,0.000497,0.033333,1.000000
3741.000000,94.851707,EKF,0.730940,2.314293,0.341652,0.850569,3.502196,2.125278,0.575919,1.270267,0.976903,2.846685,0.382622,1.146492,4.200631,2.719393,0.749427,1.593171,0.000000,0.000000,0.000000,0.000000,1.000000,0.000000,0.000000,0.000000,7.604321,29.991297,4.340251,10.333177,49.987265,29.193936,8.424750,14.177043,1.033630,2.831439,0.429312,1.046888,4.351179,2.698867,0.906256,1.424930,13.038333,0.001491,0.090909,2.673000,0.000000,0.000000,1.000000
3760.500000,94.851707,EKF,0.691834,2.858338,0.375642,0.929058,3.676366,3.001877,0.436631,1.250877,0.831818,3.472124,0.421751,1.156901,4.455914,3.624146,0.553269,1.527009,0.000000,0.000000,0.000000,0.000000,1.000000,0.000000,0.000000,0.000000,6.171855,34.740333,5.731204,13.856128,49.548338,35.219272,6.147092,15.459399,0.907215,2.963371,0.430743,1.081990,4.556108,2.864801,0.768478,1.448424,13.035667,0.006236,-0.282051,2.674333,0.001886,0.102564,1.000000
3783.000000,94.851707,EKF,0.745896,2.852557,0.397354,1.109194,3.813654,2.894178,0.814480,1.190880,0.919011,3.836817,0.584767,1.384080,4.459427,3.562286,1.101821,1.835623,0.000000,0.000000,0.000000,0.000000,1.000000,0.000000,0.000000,0.000000,9.187795,40.519612,4.566974,15.405563,45.030746,37.615274,11.697977,17.737776,0.812587,3.232836,0.449525,1.151669,4.409486,3.197713,0.716692,1.532725,13.030111,0.004202,-0.305556,2.677889,0.002331,0.222222,1.000000
3815.000000,94.851707,EKF,0.879838,4.332033,0.650142,1.447058,5.345168,4.125581,1.072848,2.192001,1.078696,5.250621,0.838780,1.642532,6.619351,4.894022,1.238205,2.708566,0.000000,0.000000,0.000000,0.000000,1.000000,0.000000,0.000000,0.000000,11.666116,54.174023,6.276667,18.080634,59.740632,49.816745,11.437134,28.033596,0.872779,3.879682,0.566196,1.317575,4.537826,3.726468,0.925945,1.920528,13.032222,0.002859,0.195652,2.680556,0.000831,0.043478,1.000000
3838.500000,94.851707,EKF,0.729559,4.308455,0.630093,1.714629,11.546215,4.632548,1.112308,2.783648,0.973122,5.669148,0.779626,1.977918,13.069932,6.037319,1.324558,3.000360,0.000000,0.000000,0.000000,0.000000,3.000000,0.000000,0.000000,0.000000,11.390092,68.800736,5.343369,21.410791,128.679280,74.120243,13.134082,28.841104,1.023746,4.722623,0.716251,1.595390,6.838296,4.607133,1.162653,2.493583,13.037556,0.003947,0.200000,2.681000,0.000000,0.000000,1.000000
3858.500000,94.851707,EKF,0.592950,7.566001,0.411572,2.624480,18.579574,8.197713,1.463516,3.980984,0.813331,9.141175,0.489236,3.008221,21.123681,9.777043,1.696881,4.514819,0.000000,0.000000,0.000000,0.000000,4.000000,1.000000,0.000000,0.000000,4.239254,91.860644,3.381798,28.044445,219.376436,98.233736,13.700893,39.574502,0.986787,6.108258,0.741396,2.015628,11.908790,6.224199,1.317549,3.230735,13.040444,0.000497,0.000000,2.680667,0.000471,-0.027027,1.000000
3881.000000,94.851707,EKF,0.917285,8.604847,0.497044,2.823361,24.007638,9.033417,1.977227,4.415739,1.007940,10.177349,0.563611,3.236799,26.595630,10.448882,2.311996,4.966368,0.000000,1.000000,0.000000,0.000000,4.000000,2.000000,0.000000,0.000000,8.661619,115.446306,3.778704,34.415485,294.142641,117.387755,23.960155,52.688907,0.927514,8.012857,0.637972,2.570832,18.912088,8.377567,1.604096,4.094366,13.037000,0.003590,-0.210526,2.681444,0.001423,0.052632,1.000000
3917.500000,94.851707,EKF,0.564910,8.508483,0.489797,3.063698,23.068560,8.373551,1.871121,3.960487,0.663699,10.040274,0.637814,3.301694,25.024312,9.656125,2.251163,4.412997,0.000000,0.000000,0.000000,0.000000,4.000000,0.000000,0.000000,0.000000,6.477356,106.287217,4.966378,33.208919,246.917326,100.834027,20.158362,40.670130,0.866006,9.554775,0.571671,3.060006,23.988676,9.793426,1.993134,4.610541,13.031444,0.001423,-0.054054,2.684000,0.002000,-0.081081,1.000000
3939.500000,94.851707,EKF,0.441643,5.816197,0.452782,2.401114,17.487649,6.223933,1.351222,2.764675,0.636519,6.992024,0.579346,2.745009,18.341557,7.220827,1.601659,3.161754,0.000000,0.000000,0.000000,0.000000,4.000000,0.000000,0.000000,0.000000,5.907038,79.269127,5.628955,29.282943,166.146216,81.981813,17.753064,32.444840,0.833496,9.649247,0.600112,3.189529,24.236636,9.658907,2.088256,4.422805,13.030889,0.000737,0.054054,2.681111,0.003784,-0.270270,1.000000
3959.500000,94.851707,EKF,0.626778,4.637397,0.554771,1.774620,12.039881,5.009682,1.222102,2.115102,0.844854,5.228442,0.619730,2.227099,13.299106,5.622450,1.498879,2.464043,0.000000,0.000000,0.000000,0.000000,4.000000,0.000000,0.000000,0.000000,9.599904,47.959131,7.155655,20.617240,142.841591,53.044633,13.696018,23.959360,0.776867,8.115106,0.619740,2.900481,20.212760,8.059646,1.872541,3.553764,13.030111,0.002233,-0.088889,2.676556,0.001892,-0.111111,1.000000
3981.000000,94.851707,EKF,0.406846,2.369644,0.465571,0.900063,7.593188,2.693757,0.503920,1.309634,0.510918,2.829401,0.534823,1.118445,8.803293,3.091264,0.610613,1.638895,0.000000,0.000000,0.000000,0.000000,2.000000,0.000000,0.000000,0.000000,5.740706,28.401956,6.499014,11.773963,85.186464,30.169085,7.976590,15.104649,0.739142,5.902641,0.590589,2.310485,15.039801,6.074497,1.463917,2.633569,13.028000,0.001633,-0.071429,2.675778,0.001227,-0.023810,1.000000
4018.000000,94.851707,EKF,0.746294,2.237115,0.289800,0.701022,6.365645,2.474958,0.648766,1.245796,0.878222,2.688488,0.380231,0.808371,7.103171,2.874302,0.843228,1.365782,0.000000,0.000000,0.000000,0.000000,2.000000,0.000000,0.000000,0.000000,9.488436,29.139456,3.554581,7.863436,73.057475,29.878643,8.821751,13.022016,0.759098,3.918745,0.538089,1.587837,11.120245,4.274847,1.126800,1.977639,13.030222,0.002657,0.195652,2.674000,0.002749,-0.173913,1.000000
4036.500000,94.851707,EKF,0.668449,1.838251,0.172192,0.745328,5.174218,1.935398,0.640020,1.029639,0.828944,2.053232,0.231289,0.788315,6.284118,2.081896,0.820949,1.214925,0.000000,0.000000,0.000000,0.000000,1.000000,0.000000,0.000000,0.000000,7.237049,21.793073,2.105802,9.472809,60.610701,18.449438,9.042195,12.458857,0.766035,2.786223,0.427592,1.037089,8.167428,3.110702,0.856826,1.569651,13.034444,0.002266,0.162162,2.670222,0.001685,-0.162162,1.000000
4061.500000,94.851707,EKF,0.376751,1.595504,0.356131,0.675720,3.082625,1.453755,0.690314,0.762322,0.546813,1.748570,0.470757,0.794062,3.627909,1.667556,0.856705,0.881173,0.000000,0.000000,0.000000,0.000000,0.000000,0.000000,0.000000,0.000000,4.873322,17.047928,4.555688,10.376882,41.007797,16.288725,6.198944,7.921359,0.753044,2.310505,0.338962,0.810321,6.313399,2.523480,0.843621,1.260363,13.035000,0.001414,-0.081081,2.666444,0.003236,-0.216216,1.000000
4082.000000,94.851707,EKF,0.475351,1.024067,0.479788,0.566861,3.772934,0.961127,0.638657,0.569154,0.598087,1.131980,0.541000,0.724058,4.363234,1.068866,0.786710,0.707971,0.000000,0.000000,0.000000,0.000000,1.000000,0.000000,0.000000,0.000000,8.332664,11.227674,6.306208,7.355644,45.657997,9.681288,7.060633,5.098701,0.670306,1.911886,0.389194,0.769444,5.209434,1.984937,0.839460,1.037914,13.037778,0.004756,0.175000,2.664444,0.002266,-0.050000,1.000000
4119.500000,94.851707,EKF,0.501861,0.876379,0.331709,0.625666,3.482052,0.948203,0.663900,0.596757,0.610182,1.017896,0.418728,0.742848,4.028970,1.116269,0.829079,0.786747,0.000000,0.000000,0.000000,0.000000,1.000000,0.000000,0.000000,0.000000,6.867048,10.482204,5.122284,7.753200,39.334827,12.044297,10.155723,5.946100,0.620118,1.467007,0.457701,0.742684,4.308249,1.478788,0.825046,0.834778,13.045667,0.002981,0.216216,2.665778,0.001685,0.000000,1.000000
4138.000000,94.851707,EKF,0.633348,0.882413,0.268744,0.552418,2.417623,0.735786,0.545205,0.572698,0.741465,1.044603,0.356317,0.693966,2.920367,0.949008,0.701850,0.779801,0.000000,0.000000,0.000000,0.000000,0.000000,0.000000,0.000000,0.000000,5.388517,12.323594,3.770637,6.668199,29.298293,9.668571,7.354225,7.888189,0.659731,1.164511,0.447041,0.714383,3.795906,1.128836,0.798732,0.769766,13.047667,0.002582,-0.021739,2.667333,0.002867,0.065217,1.000000
4161.000000,94.851707,EKF,0.568715,0.731044,0.337467,0.353637,1.805316,0.753094,0.614821,0.335991,0.748295,0.819151,0.438231,0.409386,2.098689,0.907129,0.718369,0.422178,0.000000,0.000000,0.000000,0.000000,0.000000,0.000000,0.000000,0.000000,7.173000,10.436625,4.068556,3.314013,20.374816,10.068835,6.000754,4.499300,0.695245,0.988189,0.397133,0.642688,3.164415,0.970599,0.758555,0.689165,13.045667,0.001414,-0.071429,2.673667,0.003367,0.190476,1.000000
4181.000000,94.851707,EKF,0.571016,0.776736,0.251253,0.437593,2.610173,0.701853,0.712674,0.642797,0.666270,0.809757,0.393414,0.507650,3.079958,0.794327,0.852067,0.897571,0.000000,0.000000,0.000000,0.000000,0.000000,0.000000,0.000000,0.000000,9.171177,10.559859,3.018038,4.706516,31.402630,8.040157,9.686896,9.368114,0.707999,0.912431,0.392681,0.519368,2.780102,0.883130,0.746446,0.658480,13.043333,0.002108,-0.131579,2.676000,0.000943,-0.026316,1.000000
4216.500000,94.851707,EKF,0.539688,0.519496,0.297416,0.358734,2.024144,0.585836,0.668008,0.693889,0.619583,0.586499,0.363521,0.522741,2.850131,0.675822,0.846626,0.910537,0.000000,0.000000,0.000000,0.000000,0.000000,0.000000,0.000000,0.000000,7.538959,6.996944,4.154941,4.109982,26.806738,8.364174,7.892132,9.949641,0.687817,0.803135,0.400154,0.426899,2.826122,0.798418,0.794148,0.716037,13.040778,0.000916,0.054054,2.675222,0.000916,-0.054054,1.000000
4239.500000,94.851707,EKF,0.421397,0.488174,0.433095,0.335609,1.334341,0.585345,0.264286,0.534652,0.592076,0.618321,0.526401,0.444687,2.077859,0.657550,0.378126,0.655530,0.000000,0.000000,0.000000,0.000000,0.000000,0.000000,0.000000,0.000000,6.688489,7.649116,5.210976,4.757068,21.771698,8.293598,3.269199,7.587308,0.644974,0.716024,0.433998,0.464250,2.691725,0.717022,0.787663,0.791180,13.041778,0.001315,0.081081,2.673333,0.002000,-0.135135,1.000000
4262.000000,94.851707,EKF,0.462322,0.285787,0.301701,0.320021,1.849391,0.627646,0.386589,0.711922,0.610641,0.445837,0.386836,0.400259,2.418132,0.740949,0.533236,0.825601,0.000000,0.000000,0.000000,0.000000,0.000000,0.000000,0.000000,0.000000,5.243301,4.431579,3.547279,4.390130,23.549187,10.180690,4.869687,7.729888,0.608200,0.607890,0.447114,0.478885,2.392402,0.669029,0.671415,0.762175,13.045444,0.003947,0.225000,2.672556,0.001771,0.075000,1.000000
4281.000000,94.851707,EKF,0.396741,0.376623,0.303994,0.275937,0.954208,0.473207,0.355393,0.750303,0.438156,0.454813,0.382707,0.344584,1.225054,0.617368,0.472096,0.875736,0.000000,0.000000,0.000000,0.000000,0.000000,0.000000,0.000000,0.000000,5.289470,4.213695,3.639391,3.364567,9.033386,7.944654,4.733258,8.897941,0.541679,0.525122,0.448983,0.436972,2.037754,0.676759,0.538186,0.739557,13.050111,0.002514,0.190476,2.672333,0.002404,-0.023810,1.000000
4318.000000,94.851707,EKF,0.541121,0.684339,0.455780,0.281192,0.994876,0.364299,0.412756,0.733808,0.677718,0.778244,0.543475,0.290290,1.306865,0.401878,0.518505,0.935964,0.000000,0.000000,0.000000,0.000000,0.000000,0.000000,0.000000,0.000000,7.525535,10.184368,4.377324,4.239640,13.788691,4.409897,4.778838,7.806061,0.543846,0.548430,0.440779,0.373349,1.774123,0.623496,0.511340,0.831638,13.053444,0.003023,0.217391,2.670000,0.000000,0.000000,1.000000
4336.500000,94.851707,EKF,0.801249,0.568544,0.449342,0.541123,1.493138,0.414761,0.579353,0.775336,0.947326,0.715892,0.508377,0.672484,1.753024,0.459636,0.724902,0.901962,0.000000,0.000000,0.000000,0.000000,0.000000,0.000000,0.000000,0.000000,9.962692,8.861406,4.191393,6.290498,19.869555,3.917298,6.385046,7.528527,0.687730,0.621674,0.467175,0.438433,1.488567,0.520367,0.544876,0.904192,13.058000,0.003055,0.108108,2.670000,0.000000,0.000000,1.000000
4361.000000,94.851707,EKF,0.470665,0.310959,0.439212,0.434677,1.246023,0.464743,0.543136,0.753197,0.627868,0.373558,0.532928,0.551600,1.437113,0.500592,0.656190,0.893982,0.000000,0.000000,0.000000,0.000000,0.000000,0.000000,0.000000,0.000000,6.306134,4.142680,5.663742,5.222892,13.341127,3.931177,7.422851,9.175327,0.789896,0.637656,0.517907,0.577077,1.537980,0.442586,0.595922,0.923142,13.056778,0.002657,-0.157895,2.670333,0.000471,0.026316,1.000000
4382.500000,94.851707,EKF,0.315754,0.519687,0.340237,0.262950,1.334178,0.548601,0.374804,0.835664,0.409780,0.573106,0.415343,0.340486,1.587037,0.593035,0.401659,1.012840,0.000000,0.000000,0.000000,0.000000,0.000000,0.000000,0.000000,0.000000,4.531364,6.879884,5.112818,3.084516,18.599178,5.575866,4.643032,10.074933,0.706233,0.556266,0.530882,0.596390,1.653631,0.480836,0.613403,0.929178,13.055778,0.001133,0.076923,2.670000,0.000943,-0.025641,1.000000
4419.500000,94.851707,EKF,0.662784,0.507307,0.369037,0.286271,0.830842,0.460224,0.453874,0.602858,0.782132,0.570233,0.425304,0.352100,1.078713,0.576172,0.530642,0.778459,0.000000,0.000000,0.000000,0.000000,0.000000,0.000000,0.000000,0.000000,9.177900,7.385327,4.434907,3.453161,9.192081,6.103238,6.952781,5.972216,0.582122,0.510196,0.501817,0.490462,1.532479,0.521511,0.560577,0.890650,13.055556,0.001950,-0.027027,2.668778,0.000416,0.000000,1.000000
4442.000000,94.851707,EKF,0.681339,0.370553,0.351945,0.305960,1.538374,0.277732,0.491269,0.547093,0.797024,0.433090,0.418652,0.391253,2.138309,0.399754,0.639602,0.862288,0.000000,0.000000,0.000000,0.000000,0.000000,0.000000,0.000000,0.000000,8.145786,4.944591,3.863320,3.885302,18.415181,3.695198,7.151964,6.814639,0.629779,0.536467,0.448939,0.394670,1.590336,0.520811,0.520010,0.884828,13.055778,0.001397,0.131579,2.668222,0.001227,-0.052632,1.000000
4461.500000,94.851707,EKF,0.416062,0.356903,0.359080,0.294087,1.846828,0.430670,0.613983,0.775944,0.484259,0.405850,0.399002,0.351944,2.235759,0.649746,0.762629,1.044080,0.000000,0.000000,0.000000,0.000000,0.000000,0.000000,0.000000,0.000000,3.251553,4.962198,3.089385,4.052206,20.549238,5.732189,9.992292,6.742037,0.700325,0.498173,0.401120,0.382666,1.848599,0.542591,0.589240,0.864926,13.055778,0.001548,-0.093023,2.666889,0.001197,-0.069767,1.000000
4481.000000,94.851707,EKF,0.487576,0.269114,0.289382,0.500878,1.918322,0.535654,0.550626,0.600077,0.638603,0.296708,0.319122,0.590567,2.768338,0.696171,0.697852,0.750910,0.000000,0.000000,0.000000,0.000000,0.000000,0.000000,0.000000,0.000000,7.504097,3.163504,3.624121,6.977822,31.348648,7.036211,7.428403,5.261518,0.670713,0.408867,0.365672,0.414550,2.212238,0.590316,0.678677,0.872260,13.051889,0.002961,-0.210526,2.668000,0.001826,0.105263,1.000000
4516.000000,94.851707,EKF,0.530073,0.423093,0.189298,0.664469,2.600102,0.517262,0.507295,0.360401,0.675582,0.544459,0.229835,0.727184,3.191624,0.612562,0.650494,0.442659,0.000000,0.000000,0.000000,0.000000,0.000000,0.000000,0.000000,0.000000,7.788262,5.785429,2.253993,9.461156,36.048036,5.640009,7.829216,3.152481,0.613230,0.417808,0.327833,0.528184,2.617895,0.605720,0.682015,0.756923,13.053556,0.004086,0.250000,2.672889,0.002685,0.166667,1.000000
4539.500000,94.851707,EKF,0.343316,0.646632,0.195098,0.447675,1.531071,0.550344,0.699977,0.647811,0.469591,0.725547,0.381304,0.548035,2.028576,0.663273,0.898647,0.759578,0.000000,0.000000,0.000000,0.000000,0.000000,0.000000,0.000000,0.000000,5.166278,7.070486,1.205717,5.183403,20.394392,6.569160,10.933810,5.742093,0.579560,0.511028,0.282176,0.631950,2.680672,0.602370,0.703495,0.668357,13.057444,0.000497,0.000000,2.674889,0.001663,-0.054054,1.000000
4562.500000,94.851707,EKF,0.467618,0.685773,0.421282,0.324712,1.070946,0.358418,0.729703,0.738545,0.656387,0.772672,0.595048,0.455532,1.266397,0.449499,0.890372,0.812135,0.000000,0.000000,0.000000,0.000000,0.000000,0.000000,0.000000,0.000000,4.497923,9.278794,6.328118,4.567581,11.147850,4.045528,8.842315,6.692981,0.520548,0.615200,0.387069,0.629652,2.330455,0.569883,0.768356,0.687439,13.057222,0.000416,-0.025641,2.673556,0.001571,-0.051282,1.000000
4581.500000,94.851707,EKF,0.646455,0.808127,0.227863,0.746854,1.314853,0.490644,0.788912,0.599041,0.800250,0.950046,0.339032,0.876167,1.638424,0.568911,0.966230,0.688330,0.000000,0.000000,0.000000,0.000000,0.000000,0.000000,0.000000,0.000000,6.922415,12.196361,3.283995,9.056569,14.590754,5.974057,10.971679,7.200182,0.569790,0.750819,0.491790,0.640549,1.755278,0.554398,0.842679,0.741069,13.053667,0.004397,-0.255814,2.673111,0.000875,0.023256,1.000000
4617.500000,94.851707,EKF,0.673750,0.628556,0.276154,0.643450,1.757325,0.508824,0.866942,0.558017,0.888132,0.821675,0.383227,0.738143,2.129652,0.583999,1.012028,0.707645,0.000000,0.000000,0.000000,0.000000,0.000000,0.000000,0.000000,0.000000,8.832025,9.517279,3.647714,7.064752,27.105922,6.965644,12.311946,6.822784,0.756463,0.850342,0.496773,0.719952,1.625137,0.531618,0.892458,0.750295,13.048222,0.002859,-0.191489,2.673333,0.001155,0.000000,1.000000
4635.500000,94.851707,EKF,0.445212,0.493491,0.265958,0.366781,2.099165,0.376814,0.597270,0.481038,0.631315,0.662798,0.309146,0.515097,2.388051,0.447302,0.702094,0.624076,0.000000,0.000000,0.000000,0.000000,0.000000,0.000000,0.000000,0.000000,6.399951,7.866464,2.479472,4.498438,30.324520,4.889404,6.165769,5.199630,0.831326,0.869304,0.403264,0.759227,1.867985,0.541074,0.890679,0.694707,13.046889,0.001853,-0.054054,2.670111,0.003843,-0.270270,1.000000
4661.000000,94.851707,EKF,0.676546,0.529104,0.241954,0.423778,1.822173,0.513787,0.522814,0.514530,0.757851,0.645319,0.361086,0.618219,2.065326,0.686468,0.632756,0.685918,0.000000,0.000000,0.000000,0.000000,0.000000,0.000000,0.000000,0.000000,7.614421,7.372827,3.210153,5.345101,25.771050,7.019893,6.720690,6.896568,0.790794,0.800891,0.353331,0.704118,2.123535,0.599194,0.818632,0.683288,13.046000,0.001826,-0.131579,2.665111,0.001100,-0.078947,1.000000
4717.000000,94.851707,EKF,0.849798,0.642044,0.415895,0.505070,1.531020,0.773487,0.588113,0.345218,1.040801,0.792518,0.542951,0.654210,1.770445,0.907517,0.664775,0.460509,0.000000,0.000000,0.000000,0.000000,0.000000,0.000000,0.000000,0.000000,7.372859,7.752339,6.222662,8.554357,22.137077,10.539151,7.336733,4.002071,0.762463,0.719135,0.383328,0.655398,2.113311,0.685878,0.668314,0.643061,13.039778,0.004263,-0.092593,2.666333,0.001886,0.027778,1.000000
4771.500000,94.851707,EKF,0.870460,0.553448,0.448430,0.627759,1.780142,0.727569,0.496337,0.457725,1.063730,0.675487,0.531326,0.832966,2.141346,0.845886,0.631452,0.553406,0.000000,0.000000,0.000000,0.000000,0.000000,0.000000,0.000000,0.000000,9.204366,8.614922,6.516447,9.915043,25.308175,11.686680,5.219300,4.054738,0.881239,0.703965,0.456738,0.731116,1.914368,0.791084,0.621543,0.598782,13.036000,0.000000,0.000000,2.668000,0.000000,0.000000,1.000000
4771.500000,94.851707,EKF,0.817340,0.476735,0.463592,0.412826,2.002255,0.563061,0.507554,0.551289,0.923264,0.587009,0.587259,0.641380,2.476300,0.685545,0.688934,0.627097,0.000000,0.000000,0.000000,0.000000,0.000000,0.000000,0.000000,0.000000,9.883179,6.452150,5.689490,4.126357,33.499602,8.017240,5.164196,7.520971,0.987697,0.664200,0.508791,0.765103,2.009803,0.818859,0.645732,0.539756,13.036000,0.000000,0.000000,2.668000,0.000000,0.000000,1.000000
4778.500000,94.851707,EKF,0.795190,0.566851,0.548049,0.364737,1.455944,0.709562,0.667816,0.658484,0.940673,0.655696,0.663163,0.434561,1.983940,0.880898,0.755294,0.758264,0.000000,0.000000,0.000000,0.000000,0.000000,0.000000,0.000000,0.000000,9.924663,6.496678,7.356216,4.787567,22.052967,10.588170,7.944383,8.651158,0.985527,0.635545,0.554743,0.668501,2.274397,0.809804,0.660812,0.606619,13.036000,0.000000,0.000000,2.668667,0.000943,0.153846,1.000000
4786.000000,94.851707,EKF,0.690141,0.391502,0.378822,0.503375,1.620327,0.641866,0.509487,0.526479,0.845645,0.473067,0.470505,0.583021,2.142199,0.790635,0.588604,0.680188,0.000000,0.000000,0.000000,0.000000,0.000000,0.000000,0.000000,0.000000,9.063938,3.852032,5.659777,8.118678,19.437567,10.105997,6.828193,6.653472,0.934934,0.594691,0.568834,0.531130,2.319341,0.788547,0.655927,0.694842,13.036000,0.000000,0.000000,2.667556,0.002362,-0.107143,1.000000
4820.500000,94.851707,EKF,0.496276,0.320044,0.423114,0.358151,1.961492,0.535342,0.373352,0.666282,0.587804,0.409070,0.469369,0.475773,2.271109,0.644774,0.402830,0.867382,0.000000,0.000000,0.000000,0.000000,0.000000,0.000000,0.000000,0.000000,7.333036,4.342267,5.751464,4.002425,28.935703,6.790642,5.621653,8.532061,0.862762,0.533938,0.550927,0.486660,2.200370,0.784430,0.601078,0.773599,13.034778,0.003457,-0.244444,2.664111,0.000994,0.000000,1.000000
4839.500000,94.851707,EKF,0.528241,0.354441,0.456165,0.392063,1.318769,0.582580,0.429736,0.869733,0.628833,0.394685,0.511743,0.545458,1.606142,0.640485,0.489669,0.990952,0.000000,0.000000,0.000000,0.000000,0.000000,0.000000,0.000000,0.000000,8.469116,4.046079,5.484969,6.409735,18.313016,3.930943,4.851588,6.999172,0.743944,0.447220,0.502454,0.529308,2.023639,0.723495,0.505809,0.844357,13.028444,0.005356,-0.324324,2.665222,0.002200,0.162162,1.000000
4863.500000,94.851707,EKF,0.677913,0.405546,0.608790,0.244245,1.539761,0.614642,0.500891,0.740053,0.760435,0.487439,0.694472,0.363043,1.854354,0.740543,0.627821,0.799747,0.000000,0.000000,0.000000,0.000000,0.000000,0.000000,0.000000,0.000000,8.746446,4.826147,8.835984,3.013429,19.094690,6.924064,7.672567,7.666759,0.704597,0.431423,0.543197,0.505905,1.893040,0.693643,0.491304,0.874114,13.022000,0.002789,-0.243243,2.671111,0.004175,0.297297,1.000000
4884.500000,94.851707,EKF,0.676584,0.549806,0.706714,0.352143,1.452947,0.427943,0.609696,0.637085,0.798967,0.648029,0.884952,0.417035,1.857449,0.573697,0.701685,0.667353,0.000000,0.000000,0.000000,0.000000,0.000000,0.000000,0.000000,0.000000,6.069008,6.393913,10.181168,4.273961,19.491003,5.081931,9.079030,3.907664,0.730093,0.499901,0.680418,0.467748,1.763179,0.685490,0.581685,0.816104,13.019556,0.002166,0.024390,2.674889,0.001595,-0.024390,1.000000
4922.000000,94.851707,EKF,0.761561,0.578050,0.768635,0.525380,1.970543,0.452904,0.564607,0.574700,1.005469,0.695027,0.925256,0.692030,2.345590,0.486211,0.622553,0.613397,0.000000,0.000000,0.000000,0.000000,0.000000,0.000000,0.000000,0.000000,9.210875,8.813977,10.372545,6.852226,19.741786,5.769926,6.286422,4.290893,0.838982,0.601034,0.807610,0.460414,2.018013,0.610655,0.636715,0.724724,13.020556,0.003095,0.263158,2.676444,0.001499,-0.052632,1.000000
4940.500000,94.851707,EKF,0.580842,0.489793,0.480272,0.583219,1.838283,0.455305,0.514383,0.337769,0.819152,0.578415,0.585709,0.751282,2.032566,0.496984,0.593991,0.398970,0.000000,0.000000,0.000000,0.000000,0.000000,0.000000,0.000000,0.000000,6.808968,7.072688,5.129579,9.037120,18.914999,6.147780,7.122258,4.300192,0.886315,0.650013,0.810856,0.565358,2.252311,0.509084,0.639120,0.627901,13.029444,0.009867,0.600000,2.673111,0.005174,-0.311111,1.000000
4963.000000,94.851707,EKF,0.354967,0.527265,0.500499,0.303104,1.491156,0.457559,0.317651,0.126573,0.424010,0.651534,0.587225,0.414833,1.849431,0.525196,0.415644,0.179323,0.000000,0.000000,0.000000,0.000000,0.000000,0.000000,0.000000,0.000000,4.243801,6.147344,6.814653,3.695275,22.840270,5.277114,3.906727,1.504535,0.789872,0.670999,0.697988,0.641290,2.221393,0.484394,0.584194,0.511132,13.041889,0.006951,0.333333,2.665778,0.004442,-0.285714,1.000000
4983.500000,94.851707,EKF,0.408739,0.480630,0.516471,0.423110,1.482062,0.523697,0.385328,0.143853,0.439992,0.629040,0.634789,0.482686,1.909432,0.572391,0.452669,0.269856,0.000000,0.000000,0.000000,0.000000,0.000000,0.000000,0.000000,0.000000,5.097853,4.673870,6.877115,3.770896,18.203729,4.819000,3.507373,1.642690,0.560082,0.647366,0.580586,0.600405,2.066815,0.524107,0.521182,0.343777,13.041778,0.003614,-0.243243,2.662889,0.000875,0.000000,1.000000
5019.500000,94.851707,EKF,0.486107,0.444083,0.465858,0.536496,1.744240,0.348695,0.482983,0.554875,0.520451,0.530043,0.528731,0.620190,2.622275,0.414677,0.536531,0.715645,0.000000,0.000000,0.000000,0.000000,0.000000,0.000000,0.000000,0.000000,7.460829,6.720697,6.191291,6.524755,24.256722,3.977093,4.920983,8.806882,0.453503,0.617359,0.566567,0.543563,2.235538,0.519646,0.476932,0.385377,13.034778,0.003457,-0.270270,2.663889,0.001100,0.081081,1.000000
5042.000000,94.851707,EKF,0.447233,0.401719,0.414028,0.621030,0.660788,0.243253,0.569231,0.600982,0.546058,0.475624,0.453873,0.738546,0.763928,0.339818,0.651233,0.833055,0.000000,0.000000,0.000000,0.000000,0.000000,0.000000,0.000000,0.000000,6.448200,5.332913,5.031802,9.451288,8.280539,2.695119,4.428034,9.855148,0.503586,0.540363,0.540293,0.585860,2.256443,0.458731,0.498303,0.600521,13.030333,0.001826,-0.131579,2.664111,0.001197,-0.078947,1.000000
5064.500000,94.851707,EKF,0.348029,0.431840,0.308777,0.851265,1.670423,0.525407,0.656792,0.498024,0.470027,0.527350,0.375481,0.906276,2.241927,0.697234,0.762080,0.693045,0.000000,0.000000,0.000000,0.000000,0.000000,0.000000,0.000000,0.000000,4.045633,6.309470,4.475788,11.313141,26.738181,8.056971,4.692683,7.300262,0.527676,0.508782,0.463470,0.696312,2.109063,0.482070,0.611459,0.736651,13.030444,0.001165,0.073171,2.661000,0.003055,-0.195122,1.000000
5083.000000,94.851707,EKF,0.730786,0.684073,0.313098,0.585111,2.100271,0.722694,0.449788,0.329493,1.109969,0.806930,0.382765,0.707497,2.497597,0.828113,0.563923,0.375631,0.000000,0.000000,0.000000,0.000000,0.000000,0.000000,0.000000,0.000000,9.877183,8.786112,3.985146,7.702459,31.875558,9.006685,4.939868,2.789277,0.711954,0.590761,0.403981,0.751601,2.050790,0.648406,0.670377,0.696467,13.031556,0.000685,0.047619,2.656444,0.002315,-0.190476,1.000000
5124.500000,94.851707,EKF,0.819782,0.622971,0.400727,0.322729,1.158645,0.616046,0.395585,0.371016,1.116484,0.755032,0.483703,0.352724,1.398121,0.709389,0.484205,0.460136,0.000000,0.000000,0.000000,0.000000,0.000000,0.000000,0.000000,0.000000,7.736084,8.442021,6.275976,3.553092,17.217115,8.266927,4.403691,5.329806,0.948378,0.691295,0.417855,0.695382,2.038260,0.759971,0.637328,0.561048,13.030778,0.002347,0.075472,2.655333,0.001826,0.094340,1.000000
5174.500000,94.851707,EKF,0.552751,0.388416,0.323605,0.512021,0.905982,0.436544,0.441796,0.533003,0.651823,0.439375,0.387798,0.681429,1.039310,0.509979,0.547739,0.653634,0.000000,0.000000,0.000000,0.000000,0.000000,0.000000,0.000000,0.000000,6.590304,5.081383,4.347119,5.307566,12.200130,5.900232,6.779565,5.825405,0.978641,0.690452,0.443459,0.587309,1.731637,0.716549,0.563166,0.526643,13.030556,0.004298,-0.056075,2.658889,0.002685,0.074766,1.000000
5190.000000,94.851707,EKF,0.618585,0.508184,0.434035,0.559679,1.333517,0.384521,0.593952,0.469176,0.832575,0.576567,0.493278,0.729439,1.707575,0.427902,0.727012,0.582508,0.000000,0.000000,0.000000,0.000000,0.000000,0.000000,0.000000,0.000000,7.199248,8.474260,6.859424,5.819994,17.207985,5.320431,7.529140,4.817604,0.843688,0.601035,0.463104,0.571749,1.313990,0.570440,0.599647,0.589067,13.027222,0.004157,-0.131579,2.661556,0.000831,0.026316,1.000000
5228.500000,94.851707,EKF,0.614190,0.496900,0.497280,0.482854,1.982125,0.243256,0.564425,0.353262,0.848070,0.603005,0.619574,0.569514,2.183435,0.354646,0.623144,0.440722,0.000000,0.000000,0.000000,0.000000,0.000000,0.000000,0.000000,0.000000,9.836114,7.859245,6.408560,4.307562,27.588294,3.394305,7.905683,5.052044,0.772443,0.540219,0.507140,0.641235,1.550226,0.462818,0.673839,0.575767,13.025000,0.000000,0.000000,2.662000,0.000000,0.000000,1.000000
5234.500000,94.851707,EKF,0.480305,0.527080,0.510029,0.374239,1.143670,0.369778,0.717443,0.432228,0.539126,0.659058,0.634998,0.465538,1.341889,0.501824,0.805950,0.570417,0.000000,0.000000,0.000000,0.000000,0.000000,0.000000,0.000000,0.000000,5.409029,7.869790,5.087790,4.061397,13.510116,4.038625,9.301046,5.898034,0.761739,0.562778,0.567372,0.636314,1.781751,0.438046,0.732177,0.533673,13.024778,0.000629,-0.153846,2.661667,0.000943,-0.230769,1.000000
5246.000000,94.851707,EKF,0.554206,0.450144,0.362583,0.375277,1.558040,0.694788,0.503864,0.528623,0.673929,0.583634,0.463479,0.452300,1.836922,0.772013,0.692641,0.635097,0.000000,0.000000,0.000000,0.000000,0.000000,0.000000,0.000000,0.000000,6.538069,6.186157,4.557872,5.866565,15.248058,8.855616,6.132676,6.575585,0.689414,0.573348,0.578201,0.546716,1.846300,0.520669,0.734678,0.540659,13.023000,0.001826,-0.147059,2.660222,0.001315,-0.058824,1.000000
5264.000000,94.851707,EKF,0.508189,0.712825,0.291500,0.445550,1.952503,0.524558,0.408784,0.754180,0.631700,0.894562,0.417726,0.561027,2.364861,0.658735,0.585096,0.879151,0.000000,0.000000,0.000000,0.000000,0.000000,0.000000,0.000000,0.000000,5.059021,10.098767,4.025824,6.998167,16.149972,7.776352,4.874090,8.018784,0.614197,0.665673,0.531623,0.503608,1.818996,0.616973,0.678818,0.635722,13.022556,0.002006,0.045455,2.660556,0.001066,0.045455,1.000000
5283.000000,94.851707,EKF,0.506873,0.589214,0.242755,0.333219,1.916297,0.229911,0.495389,0.986901,0.593567,0.829851,0.300138,0.502456,2.517927,0.316858,0.655879,1.101142,0.000000,0.000000,0.000000,0.000000,0.000000,0.000000,0.000000,0.000000,5.185423,7.665780,2.637904,4.720214,23.172253,3.619181,6.823818,12.441183,0.623332,0.780963,0.457220,0.499270,2.146441,0.607219,0.635940,0.805204,13.022778,0.001988,0.000000,2.662889,0.001912,0.083333,1.000000
5323.000000,94.851707,EKF,0.396415,0.615974,0.370750,0.413104,1.366539,0.308769,0.362087,0.707124,0.540021,0.797501,0.421936,0.467508,1.851160,0.379183,0.461765,0.863590,0.000000,0.000000,0.000000,0.000000,0.000000,0.000000,0.000000,0.000000,5.399049,9.508115,4.010021,5.692919,17.672617,3.407663,4.360592,9.314268,0.578911,0.839378,0.394364,0.496940,2.357618,0.479597,0.590854,0.931425,13.027111,0.005666,0.326087,2.667444,0.002266,0.130435,1.000000
5345.500000,94.851707,EKF,0.363580,0.569582,0.408581,0.461467,1.513146,0.477055,0.576065,0.612970,0.466271,0.731175,0.530112,0.531198,1.912699,0.519839,0.644380,0.660300,0.000000,0.000000,0.000000,0.000000,0.000000,0.000000,0.000000,0.000000,5.499859,7.391326,5.806149,7.089517,19.989476,5.705014,6.087894,4.765391,0.510899,0.806251,0.414484,0.504179,2.248619,0.396598,0.591019,0.918286,13.035000,0.003055,0.177778,2.671000,0.001826,0.111111,1.000000
5364.500000,94.851707,EKF,0.514041,0.294238,0.569018,0.490690,1.587473,0.454491,0.680199,0.739531,0.650016,0.350846,0.690620,0.586180,2.085654,0.542955,0.734226,0.968242,0.000000,0.000000,0.000000,0.000000,0.000000,0.000000,0.000000,0.000000,8.112122,3.484487,7.075332,6.278971,20.073299,6.282940,6.717127,7.454044,0.536986,0.683103,0.524594,0.532241,2.120419,0.458796,0.602375,0.831038,13.038000,0.001155,0.054054,2.673333,0.001247,0.081081,1.000000
5440.500000,94.851707,EKF,0.400452,0.339602,0.745723,0.473892,2.439659,0.609236,0.416421,0.789329,0.533812,0.462838,0.794076,0.550436,3.149803,0.683607,0.515656,1.128554,0.000000,0.000000,0.000000,0.000000,0.000000,0.000000,0.000000,0.000000,6.481316,4.828745,9.598098,6.604788,34.171011,6.695087,4.354861,9.980185,0.585090,0.544323,0.646332,0.561695,2.484911,0.543521,0.630242,0.922314,13.038111,0.000314,-0.006993,2.671778,0.004157,-0.069930,1.000000
5459.500000,94.851707,EKF,0.410469,0.263667,0.714671,0.584559,2.490689,0.529384,0.326309,0.392952,0.472027,0.365842,0.777541,0.664120,2.812015,0.626151,0.448241,0.455049,0.000000,0.000000,0.000000,0.000000,0.000000,0.000000,0.000000,0.000000,6.254966,3.836244,10.216408,8.822068,28.595499,5.934796,4.235106,3.953249,0.585347,0.419971,0.733090,0.556536,2.923315,0.590731,0.591558,0.987280,13.038000,0.000000,0.000000,2.666222,0.004157,-0.093458,1.000000
5512.500000,94.851707,EKF,0.685364,0.210614,0.461467,0.558605,2.095138,0.468771,0.407516,0.306681,0.794308,0.262152,0.548315,0.634426,2.438041,0.589994,0.478888,0.362887,0.000000,0.000000,0.000000,0.000000,0.000000,0.000000,0.000000,0.000000,5.023479,2.018631,6.849234,8.288686,19.551244,6.319429,5.210278,2.675435,0.580626,0.392958,0.725030,0.582214,3.003253,0.627765,0.485352,0.829694,13.038000,0.000000,0.000000,2.664000,0.000000,0.000000,1.000000
5513.000000,94.851707,EKF,0.708506,0.317758,0.357914,0.308628,2.076762,0.584211,0.412313,0.522710,0.825072,0.409303,0.435192,0.334023,2.436734,0.717015,0.507356,0.671606,0.000000,0.000000,0.000000,0.000000,0.000000,0.000000,0.000000,0.000000,8.645441,3.706510,4.699055,4.425985,25.778698,7.661998,4.552247,4.535377,0.682473,0.351716,0.639117,0.562699,2.717615,0.684120,0.445123,0.608125,13.038000,0.000000,,2.664000,0.000000,,1.000000
5513.000000,94.851707,EKF,0.398030,0.561152,0.523993,0.327206,1.451566,0.459879,0.349435,0.752024,0.468345,0.739183,0.618176,0.379909,1.676318,0.567221,0.474518,0.910309,0.000000,0.000000,0.000000,0.000000,0.000000,0.000000,0.000000,0.000000,4.521920,6.904852,8.031737,4.488491,16.798714,4.342458,4.921526,7.540926,0.748643,0.412559,0.570548,0.477443,2.310766,0.694134,0.465100,0.669344,13.038000,0.000000,,2.664000,0.000000,,1.000000
5541.000000,94.851707,EKF,0.593595,0.508861,0.448411,0.450365,2.818515,0.502232,0.473615,0.807840,0.659915,0.649931,0.519188,0.571459,3.432519,0.618289,0.566929,0.960617,0.000000,0.000000,0.000000,0.000000,0.000000,0.000000,0.000000,0.000000,9.009594,6.517795,6.468795,5.752349,28.972597,6.819148,4.034205,7.294629,0.706897,0.569634,0.574145,0.450276,2.356126,0.652069,0.494184,0.861767,13.039778,0.001618,0.071429,2.664111,0.001792,0.089286,1.000000
5547.500000,94.851707,EKF,0.684626,0.397316,0.393676,0.450687,2.754751,0.731914,0.526291,0.594219,0.769679,0.426176,0.501821,0.620247,3.417652,0.825086,0.587972,0.714345,0.000000,0.000000,0.000000,0.000000,0.000000,0.000000,0.000000,0.000000,10.505568,4.243017,3.978428,6.102694,38.221869,8.662435,5.176102,7.000161,0.659461,0.625143,0.566414,0.538258,2.812116,0.627306,0.544925,0.907386,13.041667,0.000471,0.023256,2.667000,0.002828,0.139535,1.000000
5577.500000,94.851707,EKF,0.763332,0.417823,0.520538,0.590419,2.037339,0.617246,0.623993,0.665431,0.901416,0.457654,0.640834,0.696993,2.445067,0.728933,0.733730,0.841215,0.000000,0.000000,0.000000,0.000000,0.000000,0.000000,0.000000,0.000000,9.651380,5.241434,6.160155,7.344173,29.282703,6.531689,8.846416,7.493319,0.758606,0.563397,0.570347,0.625836,3.043800,0.687092,0.624366,0.856898,13.042333,0.000471,0.058824,2.669667,0.000943,0.117647,1.000000
5585.000000,94.851707,EKF,0.548941,0.463188,0.321035,0.576300,2.422571,0.637949,0.790153,0.546915,0.623265,0.493080,0.395434,0.705530,2.940866,0.757461,0.897995,0.810988,0.000000,0.000000,0.000000,0.000000,0.000000,0.000000,0.000000,0.000000,7.456769,6.504023,4.070278,6.032312,35.705702,8.388546,9.070036,8.189880,0.820595,0.487092,0.559008,0.634365,2.922090,0.782601,0.754184,0.775947,13.043333,0.000667,0.062500,2.670333,0.000667,0.031250,1.000000
5623.000000,94.851707,EKF,0.443996,0.437258,0.368519,0.635064,2.408152,0.596205,0.648946,0.474970,0.575352,0.476202,0.403893,0.740093,2.809012,0.668820,0.727485,0.657952,0.000000,0.000000,0.000000,0.000000,0.000000,0.000000,0.000000,0.000000,5.457050,6.097484,5.166914,9.187524,34.673915,7.530542,6.652431,6.339934,0.734513,0.471507,0.534420,0.654830,2.677932,0.788961,0.814861,0.765343,13.041444,0.002455,-0.152174,2.668778,0.001133,-0.065217,1.000000
5641.500000,94.851707,EKF,0.570267,0.449506,0.377038,0.433202,2.077534,0.422715,0.478683,0.472590,0.762519,0.526913,0.420469,0.467966,2.736599,0.551717,0.605208,0.616469,0.000000,0.000000,0.000000,0.000000,0.000000,0.000000,0.000000,0.000000,6.692422,6.498126,4.724230,5.918494,28.322777,6.612187,6.444166,6.314369,0.634760,0.507903,0.459917,0.643036,2.663192,0.712639,0.774629,0.736732,13.038000,0.001414,-0.081081,2.667111,0.000737,-0.054054,1.000000
5664.500000,94.851707,EKF,0.655044,0.690560,0.315126,0.357830,1.926097,0.347672,0.386691,0.527944,0.836731,0.903002,0.376169,0.489004,2.647914,0.480022,0.573644,0.706942,0.000000,0.000000,0.000000,0.000000,0.000000,0.000000,0.000000,0.000000,6.951062,10.532695,3.998760,5.526703,31.378437,4.271293,5.225023,5.469097,0.675687,0.603302,0.431686,0.596681,2.636852,0.584115,0.649330,0.700984,13.038667,0.002357,0.135135,2.667222,0.001315,0.054054,1.000000
5684.000000,94.851707,EKF,0.551831,0.837379,0.312836,0.478305,2.038344,0.641890,0.607771,0.584201,0.716121,0.990954,0.376740,0.597679,2.637506,0.766026,0.718036,0.738175,0.000000,0.000000,0.000000,0.000000,0.000000,0.000000,0.000000,0.000000,6.006980,12.946342,4.492756,5.972729,29.915626,7.688628,7.334193,6.154520,0.742439,0.772862,0.431041,0.528892,2.599652,0.577244,0.604501,0.734431,13.039889,0.002183,0.065217,2.669111,0.001370,0.108696,1.000000
5724.500000,94.851707,EKF,0.650226,0.799027,0.301599,0.393609,4.086558,0.766462,0.373957,0.476255,0.829738,0.929954,0.373115,0.450456,4.728339,0.854680,0.440775,0.624114,0.000000,0.000000,0.000000,0.000000,0.000000,0.000000,0.000000,0.000000,8.331217,12.118438,3.040909,4.116239,67.029571,9.479012,3.723407,4.466688,0.783280,0.899762,0.400062,0.506870,3.298491,0.694320,0.597731,0.730923,13.038222,0.001812,-0.081081,2.670667,0.000943,0.081081,1.000000
5743.000000,94.851707,EKF,0.720723,0.826708,0.349794,0.453095,2.818526,0.614893,0.318199,0.453223,0.790577,0.915279,0.396278,0.529690,3.248120,0.669553,0.407865,0.540267,0.000000,0.000000,0.000000,0.000000,0.000000,0.000000,0.000000,0.000000,10.376129,10.168295,4.670351,5.991234,41.617307,7.613283,3.249044,4.721336,0.794890,0.926596,0.377921,0.517719,3.942742,0.757491,0.546177,0.677556,13.036333,0.002211,-0.043478,2.670333,0.002357,-0.108696,1.000000
5762.000000,94.851707,EKF,0.792950,0.556778,0.560066,0.516561,1.676247,0.412807,0.501500,0.482063,0.847450,0.600666,0.681372,0.575763,1.969016,0.498968,0.613845,0.530765,0.000000,0.000000,0.000000,0.000000,0.000000,0.000000,0.000000,0.000000,9.634098,7.111823,7.983494,6.109318,21.497676,4.701450,6.581180,3.717087,0.826845,0.822582,0.479555,0.525316,3.818827,0.690458,0.496823,0.590973,13.035000,0.001826,-0.026316,2.668000,0.002309,-0.105263,1.000000
5785.000000,94.851707,EKF,0.469841,0.466127,0.318061,0.283111,1.936698,0.550170,0.497104,0.566272,0.558944,0.540532,0.476736,0.337818,2.695114,0.805949,0.560926,0.631416,0.000000,0.000000,0.000000,0.000000,0.000000,0.000000,0.000000,0.000000,4.528753,6.904392,2.843610,3.011005,25.085339,6.425137,7.068047,5.615553,0.788280,0.687855,0.567126,0.504295,2.919908,0.593862,0.540012,0.557678,13.034333,0.001333,-0.052632,2.666889,0.000994,0.000000,1.000000
5873.000000,94.851707,EKF,0.432414,0.452395,0.336168,0.405566,1.919031,0.755737,0.428179,0.518374,0.474723,0.504434,0.488616,0.458934,2.675397,0.967113,0.469911,0.580758,0.000000,0.000000,0.000000,0.000000,0.000000,0.000000,0.000000,0.000000,4.109823,6.321272,4.818239,5.533620,29.086560,8.663076,4.932295,4.814641,0.675621,0.563303,0.586999,0.468429,2.384731,0.667078,0.571789,0.576026,13.037889,0.006063,-0.064286,2.661889,0.003985,-0.028571,1.000000
5969.500000,94.851707,EKF,0.506217,0.457202,0.259199,0.477399,1.581218,0.540254,0.333509,0.559056,0.538776,0.487841,0.286769,0.511789,1.754696,0.669067,0.398801,0.643656,0.000000,0.000000,0.000000,0.000000,0.000000,0.000000,0.000000,0.000000,4.383376,5.972937,3.196922,5.073218,18.737440,4.627662,4.653558,7.341193,0.566008,0.524520,0.495805,0.440472,2.365627,0.772057,0.508609,0.572809,13.027444,0.012500,-0.256000,2.661333,0.002625,0.056000,1.000000
