pc_t_ms,emg_t_ms,emg0,emg1,emg2,emg3,emg4,emg5,emg6,emg7,imu_match,imu_source_idx,imu_pc_t_ms,imu_dt_ms,imu_t_ms,imu_ax_raw,imu_ay_raw,imu_az_raw,imu_gx_raw,imu_gy_raw,imu_gz_raw,imu_mad_roll_mdeg,imu_mad_pitch_mdeg,imu_mad_yaw_mdeg,imu_mad_us,imu_ekf_roll_mdeg,imu_ekf_pitch_mdeg,imu_ekf_yaw_mdeg,imu_traceP_1e6,imu_ekf_us,imu_bx_uradps,imu_by_uradps,imu_bz_uradps
0,0,-3,-44,4,1,-111,-45,-8,4,1,0,197.000,-197.000,1125862,17304,-782,-3974,-534,-45,51,34987,-20895,5678,7,13298,1971,-44464,556601,165,-380,2331,9376
0,0,-2,-40,-1,-18,-8,-37,-8,-21,1,0,197.000,-197.000,1125862,17304,-782,-3974,-534,-45,51,34987,-20895,5678,7,13298,1971,-44464,556601,165,-380,2331,9376
0,1,1,15,-2,-1,55,14,2,-7,1,0,197.000,-197.000,1125862,17304,-782,-3974,-534,-45,51,34987,-20895,5678,7,13298,1971,-44464,556601,165,-380,2331,9376
0,1,6,54,-1,14,99,53,6,18,1,0,197.000,-197.000,1125862,17304,-782,-3974,-534,-45,51,34987,-20895,5678,7,13298,1971,-44464,556601,165,-380,2331,9376
0,2,-7,-20,2,3,-63,-20,-4,2,1,0,197.000,-197.000,1125862,17304,-782,-3974,-534,-45,51,34987,-20895,5678,7,13298,1971,-44464,556601,165,-380,2331,9376
0,2,-3,-30,-2,-12,-7,-28,-6,-15,1,0,197.000,-197.000,1125862,17304,-782,-3974,-534,-45,51,34987,-20895,5678,7,13298,1971,-44464,556601,165,-380,2331,9376
0,5,-1,-6,-1,-5,27,-4,-1,-10,1,0,197.000,-197.000,1125862,17304,-782,-3974,-534,-45,51,34987,-20895,5678,7,13298,1971,-44464,556601,165,-380,2331,9376
0,5,3,55,-2,14,97,52,8,17,1,0,197.000,-197.000,1125862,17304,-782,-3974,-534,-45,51,34987,-20895,5678,7,13298,1971,-44464,556601,165,-380,2331,9376
0,19,-2,-14,3,3,-51,-16,-3,7,1,0,197.000,-197.000,1125862,17304,-782,-3974,-534,-45,51,34987,-20895,5678,7,13298,1971,-44464,556601,165,-380,2331,9376
0,19,-2,-26,1,-8,-18,-24,-6,-12,1,0,197.000,-197.000,1125862,17304,-782,-3974,-534,-45,51,34987,-20895,5678,7,13298,1971,-44464,556601,165,-380,2331,9376
0,21,2,0,0,-9,46,0,-1,-11,1,0,197.000,-197.000,1125862,17304,-782,-3974,-534,-45,51,34987,-20895,5678,7,13298,1971,-44464,556601,165,-380,2331,9376
0,21,2,44,0,14,67,43,10,17,1,0,197.000,-197.000,1125862,17304,-782,-3974,-534,-45,51,34987,-20895,5678,7,13298,1971,-44464,556601,165,-380,2331,9376
0,30,-1,-15,2,1,-44,-16,-2,4,1,0,197.000,-197.000,1125862,17304,-782,-3974,-534,-45,51,34987,-20895,5678,7,13298,1971,-44464,556601,165,-380,2331,9376
0,30,-3,-26,-2,-10,-1,-25,-4,-15,1,0,197.000,-197.000,1125862,17304,-782,-3974,-534,-45,51,34987,-20895,5678,7,13298,1971,-44464,556601,165,-380,2331,9376
0,43,4,6,-3,-3,42,6,3,-6,1,0,197.000,-197.000,1125862,17304,-782,-3974,-534,-45,51,34987,-20895,5678,7,13298,1971,-44464,556601,165,-380,2331,9376
0,43,3,31,0,10,33,32,4,16,1,0,197.000,-197.000,1125862,17304,-782,-3974,-534,-45,51,34987,-20895,5678,7,13298,1971,-44464,556601,165,-380,2331,9376
0,51,0,-18,1,-2,-36,-18,-3,2,1,0,197.000,-197.000,1125862,17304,-782,-3974,-534,-45,51,34987,-20895,5678,7,13298,1971,-44464,556601,165,-380,2331,9376
0,51,0,-12,-1,-6,5,-12,-3,-8,1,0,197.000,-197.000,1125862,17304,-782,-3974,-534,-45,51,34987,-20895,5678,7,13298,1971,-44464,556601,165,-380,2331,9376
0,74,-1,5,-1,1,26,5,1,0,1,0,197.000,-197.000,1125862,17304,-782,-3974,-534,-45,51,34987,-20895,5678,7,13298,1971,-44464,556601,165,-380,2331,9376
0,74,1,21,-1,6,28,20,3,9,1,0,197.000,-197.000,1125862,17304,-782,-3974,-534,-45,51,34987,-20895,5678,7,13298,1971,-44464,556601,165,-380,2331,9376
0,76,0,-15,0,-2,-18,-14,-4,-3,1,0,197.000,-197.000,1125862,17304,-782,-3974,-534,-45,51,34987,-20895,5678,7,13298,1971,-44464,556601,165,-380,2331,9376
0,76,-1,-6,0,-4,13,-5,-1,-8,1,0,197.000,-197.000,1125862,17304,-782,-3974,-534,-45,51,34987,-20895,5678,7,13298,1971,-44464,556601,165,-380,2331,9376
0,88,0,5,0,1,29,5,0,-1,1,0,197.000,-197.000,1125862,17304,-782,-3974,-534,-45,51,34987,-20895,5678,7,13298,1971,-44464,556601,165,-380,2331,9376
0,88,0,13,-1,5,26,12,2,3,1,0,197.000,-197.000,1125862,17304,-782,-3974,-534,-45,51,34987,-20895,5678,7,13298,1971,-44464,556601,165,-380,2331,9376
0,128,1,14,-2,-8,78,13,3,-6,1,0,197.000,-197.000,1125862,17304,-782,-3974,-534,-45,51,34987,-20895,5678,7,13298,1971,-44464,556601,165,-380,2331,9376
0,128,4,61,-1,13,118,60,10,22,1,0,197.000,-197.000,1125862,17304,-782,-3974,-534,-45,51,34987,-20895,5678,7,13298,1971,-44464,556601,165,-380,2331,9376
0,129,0,-7,3,8,-88,-9,-1,15,1,0,197.000,-197.000,1125862,17304,-782,-3974,-534,-45,51,34987,-20895,5678,7,13298,1971,-44464,556601,165,-380,2331,9376
0,129,-6,-46,-1,-16,-35,-45,-10,-19,1,0,197.000,-197.000,1125862,17304,-782,-3974,-534,-45,51,34987,-20895,5678,7,13298,1971,-44464,556601,165,-380,2331,9376
0,133,-1,1,-3,-5,29,1,0,-8,1,0,197.000,-197.000,1125862,17304,-782,-3974,-534,-45,51,34987,-20895,5678,7,13298,1971,-44464,556601,165,-380,2331,9376
0,133,4,37,-3,8,96,38,5,7,1,0,197.000,-197.000,1125862,17304,-782,-3974,-534,-45,51,34987,-20895,5678,7,13298,1971,-44464,556601,165,-380,2331,9376
0,134,-1,7,2,10,-43,7,2,18,1,0,197.000,-197.000,1125862,17304,-782,-3974,-534,-45,51,34987,-20895,5678,7,13298,1971,-44464,556601,165,-380,2331,9376
0,134,-4,-39,0,-11,-38,-36,-6,-20,1,0,197.000,-197.000,1125862,17304,-782,-3974,-534,-45,51,34987,-20895,5678,7,13298,1971,-44464,556601,165,-380,2331,9376
0,139,-2,-9,-2,-6,13,-9,-1,-14,1,0,197.000,-197.000,1125862,17304,-782,-3974,-534,-45,51,34987,-20895,5678,7,13298,1971,-44464,556601,165,-380,2331,9376
0,139,2,37,-2,7,93,37,3,2,1,0,197.000,-197.000,1125862,17304,-782,-3974,-534,-45,51,34987,-20895,5678,7,13298,1971,-44464,556601,165,-380,2331,9376
0,154,2,6,3,8,-42,4,0,13,1,0,197.000,-197.000,1125862,17304,-782,-3974,-534,-45,51,34987,-20895,5678,7,13298,1971,-44464,556601,165,-380,2331,9376
0,154,-5,-34,-2,-11,-25,-32,-7,-15,1,0,197.000,-197.000,1125862,17304,-782,-3974,-534,-45,51,34987,-20895,5678,7,13298,1971,-44464,556601,165,-380,2331,9376
0,161,2,-4,-2,-5,33,-4,-2,-9,1,0,197.000,-197.000,1125862,17304,-782,-3974,-534,-45,51,34987,-20895,5678,7,13298,1971,-44464,556601,165,-380,2331,9376
0,161,2,36,-3,8,69,37,5,12,1,0,197.000,-197.000,1125862,17304,-782,-3974,-534,-45,51,34987,-20895,5678,7,13298,1971,-44464,556601,165,-380,2331,9376
0,170,2,-3,3,5,-37,-4,0,8,1,0,197.000,-197.000,1125862,17304,-782,-3974,-534,-45,51,34987,-20895,5678,7,13298,1971,-44464,556601,165,-380,2331,9376
0,170,0,-25,-1,-13,-18,-30,-7,-14,1,0,197.000,-197.000,1125862,17304,-782,-3974,-534,-45,51,34987,-20895,5678,7,13298,1971,-44464,556601,165,-380,2331,9376
0,176,-12,7,-1,-1,28,5,0,-5,1,0,197.000,-197.000,1125862,17304,-782,-3974,-534,-45,51,34987,-20895,5678,7,13298,1971,-44464,556601,165,-380,2331,9376
0,176,5,22,-2,6,50,22,4,3,1,0,197.000,-197.000,1125862,17304,-782,-3974,-534,-45,51,34987,-20895,5678,7,13298,1971,-44464,556601,165,-380,2331,9376
0,200,7,-10,2,3,-32,-6,2,8,1,0,197.000,-197.000,1125862,17304,-782,-3974,-534,-45,51,34987,-20895,5678,7,13298,1971,-44464,556601,165,-380,2331,9376
0,200,-2,-15,0,-7,3,-16,-2,-10,1,0,197.000,-197.000,1125862,17304,-782,-3974,-534,-45,51,34987,-20895,5678,7,13298,1971,-44464,556601,165,-380,2331,9376
0,200,-6,3,-2,-2,21,6,-1,-2,1,0,197.000,-197.000,1125862,17304,-782,-3974,-534,-45,51,34987,-20895,5678,7,13298,1971,-44464,556601,165,-380,2331,9376
0,200,-4,19,0,4,34,16,1,7,1,0,197.000,-197.000,1125862,17304,-782,-3974,-534,-45,51,34987,-20895,5678,7,13298,1971,-44464,556601,165,-380,2331,9376
0,214,-3,-7,1,0,-15,-11,-3,0,1,0,197.000,-197.000,1125862,17304,-782,-3974,-534,-45,51,34987,-20895,5678,7,13298,1971,-44464,556601,165,-380,2331,9376
0,214,-1,-8,-2,-3,13,-5,-1,-4,1,0,197.000,-197.000,1125862,17304,-782,-3974,-534,-45,51,34987,-20895,5678,7,13298,1971,-44464,556601,165,-380,2331,9376
0,221,7,1,1,-2,18,0,0,3,1,0,197.000,-197.000,1125862,17304,-782,-3974,-534,-45,51,34987,-20895,5678,7,13298,1971,-44464,556601,165,-380,2331,9376
0,221,-4,10,-2,5,33,9,2,4,1,0,197.000,-197.000,1125862,17304,-782,-3974,-534,-45,51,34987,-20895,5678,7,13298,1971,-44464,556601,165,-380,2331,9376
0,236,-3,-5,1,0,-3,-5,2,-2,1,0,197.000,-197.000,1125862,17304,-782,-3974,-534,-45,51,34987,-20895,5678,7,13298,1971,-44464,556601,165,-380,2331,9376
0,236,0,-6,0,-3,9,-4,0,-4,1,0,197.000,-197.000,1125862,17304,-782,-3974,-534,-45,51,34987,-20895,5678,7,13298,1971,-44464,556601,165,-380,2331,9376
0,237,5,0,-2,-2,12,1,-3,-1,1,0,197.000,-197.000,1125862,17304,-782,-3974,-534,-45,51,34987,-20895,5678,7,13298,1971,-44464,556601,165,-380,2331,9376
0,237,2,10,0,1,32,11,4,8,1,0,197.000,-197.000,1125862,17304,-782,-3974,-534,-45,51,34987,-20895,5678,7,13298,1971,-44464,556601,165,-380,2331,9376
0,259,-2,-3,-1,1,-1,-5,-3,2,1,0,197.000,-197.000,1125862,17304,-782,-3974,-534,-45,51,34987,-20895,5678,7,13298,1971,-44464,556601,165,-380,2331,9376
0,259,-1,-4,1,-3,0,-7,-1,-7,1,0,197.000,-197.000,1125862,17304,-782,-3974,-534,-45,51,34987,-20895,5678,7,13298,1971,-44464,556601,165,-380,2331,9376
0,259,2,1,0,-1,25,0,1,-5,1,0,197.000,-197.000,1125862,17304,-782,-3974,-534,-45,51,34987,-20895,5678,7,13298,1971,-44464,556601,165,-380,2331,9376
0,259,0,10,0,3,26,13,1,6,1,0,197.000,-197.000,1125862,17304,-782,-3974,-534,-45,51,34987,-20895,5678,7,13298,1971,-44464,556601,165,-380,2331,9376
0,282,-4,-4,-2,-1,-2,-7,-3,-1,1,0,197.000,-197.000,1125862,17304,-782,-3974,-534,-45,51,34987,-20895,5678,7,13298,1971,-44464,556601,165,-380,2331,9376
0,282,1,-6,-1,-3,11,-3,0,0,1,0,197.000,-197.000,1125862,17304,-782,-3974,-534,-45,51,34987,-20895,5678,7,13298,1971,-44464,556601,165,-380,2331,9376
0,282,1,2,1,0,29,3,0,-1,1,0,197.000,-197.000,1125862,17304,-782,-3974,-534,-45,51,34987,-20895,5678,7,13298,1971,-44464,556601,165,-380,2331,9376
0,282,4,7,0,1,20,5,0,2,1,0,197.000,-197.000,1125862,17304,-782,-3974,-534,-45,51,34987,-20895,5678,7,13298,1971,-44464,556601,165,-380,2331,9376
0,298,-12,-10,1,0,2,-8,-4,-7,1,0,197.000,-197.000,1125862,17304,-782,-3974,-534,-45,51,34987,-20895,5678,7,13298,1971,-44464,556601,165,-380,2331,9376
0,298,10,-1,-1,-3,18,-1,-1,-3,1,0,197.000,-197.000,1125862,17304,-782,-3974,-534,-45,51,34987,-20895,5678,7,13298,1971,-44464,556601,165,-380,2331,9376
0,299,0,4,0,2,20,2,0,-1,1,0,197.000,-197.000,1125862,17304,-782,-3974,-534,-45,51,34987,-20895,5678,7,13298,1971,-44464,556601,165,-380,2331,9376
0,299,-1,7,-1,2,19,3,-1,5,1,0,197.000,-197.000,1125862,17304,-782,-3974,-534,-45,51,34987,-20895,5678,7,13298,1971,-44464,556601,165,-380,2331,9376
0,319,-2,-9,0,-3,2,-7,-1,0,1,0,197.000,-197.000,1125862,17304,-782,-3974,-534,-45,51,34987,-20895,5678,7,13298,1971,-44464,556601,165,-380,2331,9376
0,319,-3,1,-1,-1,29,2,1,-1,1,0,197.000,-197.000,1125862,17304,-782,-3974,-534,-45,51,34987,-20895,5678,7,13298,1971,-44464,556601,165,-380,2331,9376
0,328,0,3,-2,-1,16,5,1,1,1,0,197.000,-197.000,1125862,17304,-782,-3974,-534,-45,51,34987,-20895,5678,7,13298,1971,-44464,556601,165,-380,2331,9376
0,328,2,6,1,4,14,5,0,3,1,0,197.000,-197.000,1125862,17304,-782,-3974,-534,-45,51,34987,-20895,5678,7,13298,1971,-44464,556601,165,-380,2331,9376
0,341,2,-7,-1,-3,4,-9,-2,0,1,0,197.000,-197.000,1125862,17304,-782,-3974,-534,-45,51,34987,-20895,5678,7,13298,1971,-44464,556601,165,-380,2331,9376
0,341,-2,1,0,1,29,1,-1,-1,1,0,197.000,-197.000,1125862,17304,-782,-3974,-534,-45,51,34987,-20895,5678,7,13298,1971,-44464,556601,165,-380,2331,9376
0,343,2,2,1,1,14,0,-1,0,1,0,197.000,-197.000,1125862,17304,-782,-3974,-534,-45,51,34987,-20895,5678,7,13298,1971,-44464,556601,165,-380,2331,9376
0,343,-3,3,-1,1,14,5,1,-2,1,0,197.000,-197.000,1125862,17304,-782,-3974,-534,-45,51,34987,-20895,5678,7,13298,1971,-44464,556601,165,-380,2331,9376
0,365,-1,-6,-2,-4,6,-7,-1,-2,1,0,197.000,-197.000,1125862,17304,-782,-3974,-534,-45,51,34987,-20895,5678,7,13298,1971,-44464,556601,165,-380,2331,9376
0,365,-1,1,-1,-1,31,4,1,0,1,0,197.000,-197.000,1125862,17304,-782,-3974,-534,-45,51,34987,-20895,5678,7,13298,1971,-44464,556601,165,-380,2331,9376
0,366,1,1,-2,-1,16,2,0,1,1,0,197.000,-197.000,1125862,17304,-782,-3974,-534,-45,51,34987,-20895,5678,7,13298,1971,-44464,556601,165,-380,2331,9376
0,366,-3,4,0,2,16,4,2,1,1,0,197.000,-197.000,1125862,17304,-782,-3974,-534,-45,51,34987,-20895,5678,7,13298,1971,-44464,556601,165,-380,2331,9376
0,387,-1,-6,1,-1,6,-8,-4,-5,1,0,197.000,-197.000,1125862,17304,-782,-3974,-534,-45,51,34987,-20895,5678,7,13298,1971,-44464,556601,165,-380,2331,9376
0,387,0,4,-1,0,26,1,-1,-2,1,0,197.000,-197.000,1125862,17304,-782,-3974,-534,-45,51,34987,-20895,5678,7,13298,1971,-44464,556601,165,-380,2331,9376
0,388,-2,1,-1,0,21,3,1,-1,1,0,197.000,-197.000,1125862,17304,-782,-3974,-534,-45,51,34987,-20895,5678,7,13298,1971,-44464,556601,165,-380,2331,9376
0,388,4,3,-2,1,15,2,-1,4,1,0,197.000,-197.000,1125862,17304,-782,-3974,-534,-45,51,34987,-20895,5678,7,13298,1971,-44464,556601,165,-380,2331,9376
0,402,6,-7,0,-2,10,-9,-3,1,1,0,197.000,-197.000,1125862,17304,-782,-3974,-534,-45,51,34987,-20895,5678,7,13298,1971,-44464,556601,165,-380,2331,9376
0,402,-5,3,0,0,29,3,-1,-2,1,0,197.000,-197.000,1125862,17304,-782,-3974,-534,-45,51,34987,-20895,5678,7,13298,1971,-44464,556601,165,-380,2331,9376
0,403,-1,3,1,1,23,2,0,0,1,0,197.000,-197.000,1125862,17304,-782,-3974,-534,-45,51,34987,-20895,5678,7,13298,1971,-44464,556601,165,-380,2331,9376
0,403,1,3,1,0,17,2,1,3,1,0,197.000,-197.000,1125862,17304,-782,-3974,-534,-45,51,34987,-20895,5678,7,13298,1971,-44464,556601,165,-380,2331,9376
0,417,-2,-8,-2,-1,11,-6,-2,-2,1,0,197.000,-197.000,1125862,17304,-782,-3974,-534,-45,51,34987,-20895,5678,7,13298,1971,-44464,556601,165,-380,2331,9376
0,417,-1,1,0,-1,15,4,0,1,1,0,197.000,-197.000,1125862,17304,-782,-3974,-534,-45,51,34987,-20895,5678,7,13298,1971,-44464,556601,165,-380,2331,9376
0,418,-1,0,0,0,17,3,2,3,1,0,197.000,-197.000,1125862,17304,-782,-3974,-534,-45,51,34987,-20895,5678,7,13298,1971,-44464,556601,165,-380,2331,9376
0,418,-1,1,0,-1,5,0,-1,1,1,0,197.000,-197.000,1125862,17304,-782,-3974,-534,-45,51,34987,-20895,5678,7,13298,1971,-44464,556601,165,-380,2331,9376
0,439,2,-7,0,-2,11,-5,-1,0,1,0,197.000,-197.000,1125862,17304,-782,-3974,-534,-45,51,34987,-20895,5678,7,13298,1971,-44464,556601,165,-380,2331,9376
0,439,0,5,0,-1,22,3,3,-2,1,0,197.000,-197.000,1125862,17304,-782,-3974,-534,-45,51,34987,-20895,5678,7,13298,1971,-44464,556601,165,-380,2331,9376
0,440,1,3,-1,0,17,1,2,0,1,0,197.000,-197.000,1125862,17304,-782,-3974,-534,-45,51,34987,-20895,5678,7,13298,1971,-44464,556601,165,-380,2331,9376
0,440,-1,-1,-1,1,9,4,0,3,1,0,197.000,-197.000,1125862,17304,-782,-3974,-534,-45,51,34987,-20895,5678,7,13298,1971,-44464,556601,165,-380,2331,9376
0,461,0,-9,0,-3,11,-7,0,-6,1,0,197.000,-197.000,1125862,17304,-782,-3974,-534,-45,51,34987,-20895,5678,7,13298,1971,-44464,556601,165,-380,2331,9376
0,461,-1,4,0,0,30,1,-2,-3,1,0,197.000,-197.000,1125862,17304,-782,-3974,-534,-45,51,34987,-20895,5678,7,13298,1971,-44464,556601,165,-380,2331,9376
0,462,0,3,1,1,23,4,0,-1,1,0,197.000,-197.000,1125862,17304,-782,-3974,-534,-45,51,34987,-20895,5678,7,13298,1971,-44464,556601,165,-380,2331,9376
0,462,-3,1,0,0,13,1,-1,1,1,0,197.000,-197.000,1125862,17304,-782,-3974,-534,-45,51,34987,-20895,5678,7,13298,1971,-44464,556601,165,-380,2331,9376
0,476,-2,-7,-2,-3,10,-4,-1,-5,1,0,197.000,-197.000,1125862,17304,-782,-3974,-534,-45,51,34987,-20895,5678,7,13298,1971,-44464,556601,165,-380,2331,9376
0,476,5,3,0,0,28,4,1,3,1,0,197.000,-197.000,1125862,17304,-782,-3974,-534,-45,51,34987,-20895,5678,7,13298,1971,-44464,556601,165,-380,2331,9376
0,477,0,4,0,1,26,2,-1,-1,1,0,197.000,-197.000,1125862,17304,-782,-3974,-534,-45,51,34987,-20895,5678,7,13298,1971,-44464,556601,165,-380,2331,9376
0,477,3,1,0,2,3,-2,0,1,1,0,197.000,-197.000,1125862,17304,-782,-3974,-534,-45,51,34987,-20895,5678,7,13298,1971,-44464,556601,165,-380,2331,9376
0,499,-6,-7,0,-4,13,-4,-1,-7,1,0,197.000,-197.000,1125862,17304,-782,-3974,-534,-45,51,34987,-20895,5678,7,13298,1971,-44464,556601,165,-380,2331,9376
0,499,1,3,0,0,24,4,1,0,1,0,197.000,-197.000,1125862,17304,-782,-3974,-534,-45,51,34987,-20895,5678,7,13298,1971,-44464,556601,165,-380,2331,9376
0,500,0,2,-1,0,10,0,-2,5,1,0,197.000,-197.000,1125862,17304,-782,-3974,-534,-45,51,34987,-20895,5678,7,13298,1971,-44464,556601,165,-380,2331,9376
0,500,-3,-1,-2,3,-5,1,-1,3,1,0,197.000,-197.000,1125862,17304,-782,-3974,-534,-45,51,34987,-20895,5678,7,13298,1971,-44464,556601,165,-380,2331,9376
0,521,-2,-8,1,-2,11,-8,-3,1,1,0,197.000,-197.000,1125862,17304,-782,-3974,-534,-45,51,34987,-20895,5678,7,13298,1971,-44464,556601,165,-380,2331,9376
0,521,-2,2,-3,0,13,3,2,2,1,0,197.000,-197.000,1125862,17304,-782,-3974,-534,-45,51,34987,-20895,5678,7,13298,1971,-44464,556601,165,-380,2331,9376
0,522,0,0,1,0,12,0,-1,1,1,0,197.000,-197.000,1125862,17304,-782,-3974,-534,-45,51,34987,-20895,5678,7,13298,1971,-44464,556601,165,-380,2331,9376
0,522,-3,-1,1,0,-7,1,0,-1,1,0,197.000,-197.000,1125862,17304,-782,-3974,-534,-45,51,34987,-20895,5678,7,13298,1971,-44464,556601,165,-380,2331,9376
0,537,1,-7,0,-3,8,-8,0,-5,1,0,197.000,-197.000,1125862,17304,-782,-3974,-534,-45,51,34987,-20895,5678,7,13298,1971,-44464,556601,165,-380,2331,9376
0,537,0,4,0,1,17,4,1,-1,1,0,197.000,-197.000,1125862,17304,-782,-3974,-534,-45,51,34987,-20895,5678,7,13298,1971,-44464,556601,165,-380,2331,9376
0,537,2,3,-2,2,15,2,0,-1,1,0,197.000,-197.000,1125862,17304,-782,-3974,-534,-45,51,34987,-20895,5678,7,13298,1971,-44464,556601,165,-380,2331,9376
0,537,2,-1,1,2,-4,-2,1,1,1,0,197.000,-197.000,1125862,17304,-782,-3974,-534,-45,51,34987,-20895,5678,7,13298,1971,-44464,556601,165,-380,2331,9376
0,559,-2,-7,0,-3,10,-6,-3,-2,1,0,197.000,-197.000,1125862,17304,-782,-3974,-534,-45,51,34987,-20895,5678,7,13298,1971,-44464,556601,165,-380,2331,9376
0,559,0,4,-3,1,20,4,0,1,1,0,197.000,-197.000,1125862,17304,-782,-3974,-534,-45,51,34987,-20895,5678,7,13298,1971,-44464,556601,165,-380,2331,9376
0,560,-4,1,1,0,13,1,0,1,1,0,197.000,-197.000,1125862,17304,-782,-3974,-534,-45,51,34987,-20895,5678,7,13298,1971,-44464,556601,165,-380,2331,9376
0,560,1,1,0,0,-3,-2,-1,2,1,0,197.000,-197.000,1125862,17304,-782,-3974,-534,-45,51,34987,-20895,5678,7,13298,1971,-44464,556601,165,-380,2331,9376
0,582,-6,-9,0,-2,8,-5,-2,-3,1,0,197.000,-197.000,1125862,17304,-782,-3974,-534,-45,51,34987,-20895,5678,7,13298,1971,-44464,556601,165,-380,2331,9376
0,582,2,1,1,1,13,2,0,-1,1,0,197.000,-197.000,1125862,17304,-782,-3974,-534,-45,51,34987,-20895,5678,7,13298,1971,-44464,556601,165,-380,2331,9376
0,583,-1,2,-1,1,16,2,0,3,1,0,197.000,-197.000,1125862,17304,-782,-3974,-534,-45,51,34987,-20895,5678,7,13298,1971,-44464,556601,165,-380,2331,9376
0,583,-1,-1,-1,-1,-6,-1,1,1,1,0,197.000,-197.000,1125862,17304,-782,-3974,-534,-45,51,34987,-20895,5678,7,13298,1971,-44464,556601,165,-380,2331,9376
0,597,4,-6,-1,-3,10,-9,-1,-6,1,0,197.000,-197.000,1125862,17304,-782,-3974,-534,-45,51,34987,-20895,5678,7,13298,1971,-44464,556601,165,-380,2331,9376
0,597,-1,6,-2,-2,19,3,0,1,1,0,197.000,-197.000,1125862,17304,-782,-3974,-534,-45,51,34987,-20895,5678,7,13298,1971,-44464,556601,165,-380,2331,9376
0,597,-3,0,0,-1,17,3,0,0,1,0,197.000,-197.000,1125862,17304,-782,-3974,-534,-45,51,34987,-20895,5678,7,13298,1971,-44464,556601,165,-380,2331,9376
0,597,-1,0,0,0,4,0,2,-1,1,0,197.000,-197.000,1125862,17304,-782,-3974,-534,-45,51,34987,-20895,5678,7,13298,1971,-44464,556601,165,-380,2331,9376
0,619,3,-8,-1,-4,9,-5,-1,-5,1,0,197.000,-197.000,1125862,17304,-782,-3974,-534,-45,51,34987,-20895,5678,7,13298,1971,-44464,556601,165,-380,2331,9376
0,619,-1,4,-2,-1,10,3,0,1,1,0,197.000,-197.000,1125862,17304,-782,-3974,-534,-45,51,34987,-20895,5678,7,13298,1971,-44464,556601,165,-380,2331,9376
0,620,-1,1,-2,0,18,2,0,3,1,0,197.000,-197.000,1125862,17304,-782,-3974,-534,-45,51,34987,-20895,5678,7,13298,1971,-44464,556601,165,-380,2331,9376
0,620,0,-1,0,2,0,-1,-1,5,1,0,197.000,-197.000,1125862,17304,-782,-3974,-534,-45,51,34987,-20895,5678,7,13298,1971,-44464,556601,165,-380,2331,9376
0,641,-2,-4,-2,-1,7,-7,-3,-3,1,0,197.000,-197.000,1125862,17304,-782,-3974,-534,-45,51,34987,-20895,5678,7,13298,1971,-44464,556601,165,-380,2331,9376
0,641,0,3,1,1,16,5,1,2,1,0,197.000,-197.000,1125862,17304,-782,-3974,-534,-45,51,34987,-20895,5678,7,13298,1971,-44464,556601,165,-380,2331,9376
0,642,0,1,-2,-2,19,3,-1,0,1,0,197.000,-197.000,1125862,17304,-782,-3974,-534,-45,51,34987,-20895,5678,7,13298,1971,-44464,556601,165,-380,2331,9376
0,642,-1,-4,0,0,-8,-5,-1,3,1,0,197.000,-197.000,1125862,17304,-782,-3974,-534,-45,51,34987,-20895,5678,7,13298,1971,-44464,556601,165,-380,2331,9376
0,665,-1,-7,0,-3,8,-8,0,-2,1,0,197.000,-197.000,1125862,17304,-782,-3974,-534,-45,51,34987,-20895,5678,7,13298,1971,-44464,556601,165,-380,2331,9376
0,665,1,3,0,-1,14,-1,1,1,1,0,197.000,-197.000,1125862,17304,-782,-3974,-534,-45,51,34987,-20895,5678,7,13298,1971,-44464,556601,165,-380,2331,9376
0,665,3,3,-2,-1,16,2,-1,0,1,0,197.000,-197.000,1125862,17304,-782,-3974,-534,-45,51,34987,-20895,5678,7,13298,1971,-44464,556601,165,-380,2331,9376
0,665,-2,-2,2,1,9,-3,-2,-4,1,0,197.000,-197.000,1125862,17304,-782,-3974,-534,-45,51,34987,-20895,5678,7,13298,1971,-44464,556601,165,-380,2331,9376
0,680,-2,-6,-1,-1,5,-7,-2,-3,1,0,197.000,-197.000,1125862,17304,-782,-3974,-534,-45,51,34987,-20895,5678,7,13298,1971,-44464,556601,165,-380,2331,9376
0,680,0,2,-1,-1,17,3,1,-2,1,0,197.000,-197.000,1125862,17304,-782,-3974,-534,-45,51,34987,-20895,5678,7,13298,1971,-44464,556601,165,-380,2331,9376
0,680,2,4,1,1,21,3,1,0,1,0,197.000,-197.000,1125862,17304,-782,-3974,-534,-45,51,34987,-20895,5678,7,13298,1971,-44464,556601,165,-380,2331,9376
0,680,-1,-1,0,0,1,-1,-2,0,1,0,197.000,-197.000,1125862,17304,-782,-3974,-534,-45,51,34987,-20895,5678,7,13298,1971,-44464,556601,165,-380,2331,9376
0,701,-2,-5,-1,-3,11,-7,-2,-4,1,0,197.000,-197.000,1125862,17304,-782,-3974,-534,-45,51,34987,-20895,5678,7,13298,1971,-44464,556601,165,-380,2331,9376
0,701,-2,1,-1,2,23,3,-2,-2,1,0,197.000,-197.000,1125862,17304,-782,-3974,-534,-45,51,34987,-20895,5678,7,13298,1971,-44464,556601,165,-380,2331,9376
0,703,-1,1,-1,1,22,2,0,0,1,0,197.000,-197.000,1125862,17304,-782,-3974,-534,-45,51,34987,-20895,5678,7,13298,1971,-44464,556601,165,-380,2331,9376
0,703,1,-1,1,0,-2,-4,0,1,1,0,197.000,-197.000,1125862,17304,-782,-3974,-534,-45,51,34987,-20895,5678,7,13298,1971,-44464,556601,165,-380,2331,9376
0,717,2,-5,0,-4,11,-6,-1,-5,1,0,197.000,-197.000,1125862,17304,-782,-3974,-534,-45,51,34987,-20895,5678,7,13298,1971,-44464,556601,165,-380,2331,9376
0,717,-2,3,-1,2,13,2,0,1,1,0,197.000,-197.000,1125862,17304,-782,-3974,-534,-45,51,34987,-20895,5678,7,13298,1971,-44464,556601,165,-380,2331,9376
0,718,2,3,-1,0,15,2,1,4,1,0,197.000,-197.000,1125862,17304,-782,-3974,-534,-45,51,34987,-20895,5678,7,13298,1971,-44464,556601,165,-380,2331,9376
0,718,-1,-1,-2,0,-2,-4,1,3,1,0,197.000,-197.000,1125862,17304,-782,-3974,-534,-45,51,34987,-20895,5678,7,13298,1971,-44464,556601,165,-380,2331,9376
0,740,0,-7,0,-4,10,-6,0,-4,1,0,197.000,-197.000,1125862,17304,-782,-3974,-534,-45,51,34987,-20895,5678,7,13298,1971,-44464,556601,165,-380,2331,9376
0,740,-1,2,-1,0,15,5,0,0,1,0,197.000,-197.000,1125862,17304,-782,-3974,-534,-45,51,34987,-20895,5678,7,13298,1971,-44464,556601,165,-380,2331,9376
0,740,0,2,0,1,19,4,-1,0,1,0,197.000,-197.000,1125862,17304,-782,-3974,-534,-45,51,34987,-20895,5678,7,13298,1971,-44464,556601,165,-380,2331,9376
0,740,-3,-4,0,0,-8,-4,-2,1,1,0,197.000,-197.000,1125862,17304,-782,-3974,-534,-45,51,34987,-20895,5678,7,13298,1971,-44464,556601,165,-380,2331,9376
5,761,-1,-5,0,-2,10,-6,-4,-5,1,0,197.000,-192.000,1125862,17304,-782,-3974,-534,-45,51,34987,-20895,5678,7,13298,1971,-44464,556601,165,-380,2331,9376
5,761,-1,5,1,0,22,5,0,-1,1,0,197.000,-192.000,1125862,17304,-782,-3974,-534,-45,51,34987,-20895,5678,7,13298,1971,-44464,556601,165,-380,2331,9376
6,763,1,3,1,2,20,1,2,2,1,0,197.000,-191.000,1125862,17304,-782,-3974,-534,-45,51,34987,-20895,5678,7,13298,1971,-44464,556601,165,-380,2331,9376
6,763,0,-5,-1,0,-19,-3,-2,0,1,0,197.000,-191.000,1125862,17304,-782,-3974,-534,-45,51,34987,-20895,5678,7,13298,1971,-44464,556601,165,-380,2331,9376
20,777,1,-8,-2,-3,10,-4,-2,-1,1,0,197.000,-177.000,1125862,17304,-782,-3974,-534,-45,51,34987,-20895,5678,7,13298,1971,-44464,556601,165,-380,2331,9376
20,777,1,3,-1,0,18,3,0,2,1,0,197.000,-177.000,1125862,17304,-782,-3974,-534,-45,51,34987,-20895,5678,7,13298,1971,-44464,556601,165,-380,2331,9376
21,778,-2,1,1,1,10,1,2,3,1,0,197.000,-176.000,1125862,17304,-782,-3974,-534,-45,51,34987,-20895,5678,7,13298,1971,-44464,556601,165,-380,2331,9376
21,778,0,-2,2,-1,-2,-3,0,2,1,0,197.000,-176.000,1125862,17304,-782,-3974,-534,-45,51,34987,-20895,5678,7,13298,1971,-44464,556601,165,-380,2331,9376
43,799,-1,-4,0,-3,8,-5,-1,-3,1,0,197.000,-154.000,1125862,17304,-782,-3974,-534,-45,51,34987,-20895,5678,7,13298,1971,-44464,556601,165,-380,2331,9376
43,799,0,3,-1,1,17,5,1,0,1,0,197.000,-154.000,1125862,17304,-782,-3974,-534,-45,51,34987,-20895,5678,7,13298,1971,-44464,556601,165,-380,2331,9376
43,800,2,2,-3,1,23,2,-1,1,1,0,197.000,-154.000,1125862,17304,-782,-3974,-534,-45,51,34987,-20895,5678,7,13298,1971,-44464,556601,165,-380,2331,9376
43,800,2,-2,0,-1,-4,-5,-1,-1,1,0,197.000,-154.000,1125862,17304,-782,-3974,-534,-45,51,34987,-20895,5678,7,13298,1971,-44464,556601,165,-380,2331,9376
65,821,1,-6,0,-4,8,-4,-1,-5,1,0,197.000,-132.000,1125862,17304,-782,-3974,-534,-45,51,34987,-20895,5678,7,13298,1971,-44464,556601,165,-380,2331,9376
65,821,0,3,2,-2,19,4,0,-1,1,0,197.000,-132.000,1125862,17304,-782,-3974,-534,-45,51,34987,-20895,5678,7,13298,1971,-44464,556601,165,-380,2331,9376
66,823,2,4,-2,0,17,5,0,2,1,0,197.000,-131.000,1125862,17304,-782,-3974,-534,-45,51,34987,-20895,5678,7,13298,1971,-44464,556601,165,-380,2331,9376
66,823,2,-5,-1,0,-3,-1,-1,1,1,0,197.000,-131.000,1125862,17304,-782,-3974,-534,-45,51,34987,-20895,5678,7,13298,1971,-44464,556601,165,-380,2331,9376
79,836,-2,-3,-2,-2,10,-4,-3,-3,1,0,197.000,-118.000,1125862,17304,-782,-3974,-534,-45,51,34987,-20895,5678,7,13298,1971,-44464,556601,165,-380,2331,9376
79,836,-1,3,2,1,26,2,-1,0,1,0,197.000,-118.000,1125862,17304,-782,-3974,-534,-45,51,34987,-20895,5678,7,13298,1971,-44464,556601,165,-380,2331,9376
88,845,-3,1,0,0,23,3,1,-2,1,0,197.000,-109.000,1125862,17304,-782,-3974,-534,-45,51,34987,-20895,5678,7,13298,1971,-44464,556601,165,-380,2331,9376
88,845,-3,-4,-2,0,-3,-5,1,0,1,0,197.000,-109.000,1125862,17304,-782,-3974,-534,-45,51,34987,-20895,5678,7,13298,1971,-44464,556601,165,-380,2331,9376
103,860,2,-4,-1,-2,15,-5,-1,-1,1,0,197.000,-94.000,1125862,17304,-782,-3974,-534,-45,51,34987,-20895,5678,7,13298,1971,-44464,556601,165,-380,2331,9376
103,860,-5,2,-1,1,22,1,0,-4,1,0,197.000,-94.000,1125862,17304,-782,-3974,-534,-45,51,34987,-20895,5678,7,13298,1971,-44464,556601,165,-380,2331,9376
103,860,-1,3,0,1,19,2,-1,0,1,0,197.000,-94.000,1125862,17304,-782,-3974,-534,-45,51,34987,-20895,5678,7,13298,1971,-44464,556601,165,-380,2331,9376
103,860,-1,-3,0,0,1,-1,-1,-1,1,0,197.000,-94.000,1125862,17304,-782,-3974,-534,-45,51,34987,-20895,5678,7,13298,1971,-44464,556601,165,-380,2331,9376
125,882,2,-3,1,-2,11,-4,-1,-3,1,0,197.000,-72.000,1125862,17304,-782,-3974,-534,-45,51,34987,-20895,5678,7,13298,1971,-44464,556601,165,-380,2331,9376
125,882,5,3,-2,-2,12,1,0,0,1,0,197.000,-72.000,1125862,17304,-782,-3974,-534,-45,51,34987,-20895,5678,7,13298,1971,-44464,556601,165,-380,2331,9376
126,883,0,2,-1,0,10,2,1,2,1,0,197.000,-71.000,1125862,17304,-782,-3974,-534,-45,51,34987,-20895,5678,7,13298,1971,-44464,556601,165,-380,2331,9376
126,883,-1,-3,1,-2,-16,-4,-1,0,1,0,197.000,-71.000,1125862,17304,-782,-3974,-534,-45,51,34987,-20895,5678,7,13298,1971,-44464,556601,165,-380,2331,9376
139,896,-1,-6,-1,-2,10,-3,1,-1,1,0,197.000,-58.000,1125862,17304,-782,-3974,-534,-45,51,34987,-20895,5678,7,13298,1971,-44464,556601,165,-380,2331,9376
139,896,1,3,1,0,16,6,0,3,1,0,197.000,-58.000,1125862,17304,-782,-3974,-534,-45,51,34987,-20895,5678,7,13298,1971,-44464,556601,165,-380,2331,9376
148,904,-3,3,-1,1,22,3,-1,4,1,0,197.000,-49.000,1125862,17304,-782,-3974,-534,-45,51,34987,-20895,5678,7,13298,1971,-44464,556601,165,-380,2331,9376
148,904,-2,-6,0,0,-15,-6,-2,0,1,0,197.000,-49.000,1125862,17304,-782,-3974,-534,-45,51,34987,-20895,5678,7,13298,1971,-44464,556601,165,-380,2331,9376
163,919,-4,-5,-2,-2,14,-5,-4,-5,1,0,197.000,-34.000,1125862,17304,-782,-3974,-534,-45,51,34987,-20895,5678,7,13298,1971,-44464,556601,165,-380,2331,9376
163,919,0,1,-2,0,17,1,2,1,1,0,197.000,-34.000,1125862,17304,-782,-3974,-534,-45,51,34987,-20895,5678,7,13298,1971,-44464,556601,165,-380,2331,9376
163,920,-1,2,0,1,9,3,0,-2,1,0,197.000,-34.000,1125862,17304,-782,-3974,-534,-45,51,34987,-20895,5678,7,13298,1971,-44464,556601,165,-380,2331,9376
164,920,0,-5,-2,0,-15,-7,-1,-4,1,0,197.000,-33.000,1125862,17304,-782,-3974,-534,-45,51,34987,-20895,5678,7,13298,1971,-44464,556601,165,-380,2331,9376
197,942,-3,-4,0,-1,12,-2,-1,-4,1,0,197.000,0.000,1125862,17304,-782,-3974,-534,-45,51,34987,-20895,5678,7,13298,1971,-44464,556601,165,-380,2331,9376
197,942,3,3,0,0,7,1,1,4,1,0,197.000,0.000,1125862,17304,-782,-3974,-534,-45,51,34987,-20895,5678,7,13298,1971,-44464,556601,165,-380,2331,9376
197,942,-1,1,0,1,13,2,-2,2,1,0,197.000,0.000,1125862,17304,-782,-3974,-534,-45,51,34987,-20895,5678,7,13298,1971,-44464,556601,165,-380,2331,9376
197,942,2,-5,1,-1,-2,-3,-1,0,1,0,197.000,0.000,1125862,17304,-782,-3974,-534,-45,51,34987,-20895,5678,7,13298,1971,-44464,556601,165,-380,2331,9376
200,956,-1,-4,-1,-2,14,-4,-3,-2,1,1,201.000,-1.000,1125873,17352,-840,-3970,-536,-42,48,35569,-21353,6046,7,13205,2142,-44679,545422,165,-357,2368,9372
200,956,1,4,0,-1,15,3,0,0,1,1,201.000,-1.000,1125873,17352,-840,-3970,-536,-42,48,35569,-21353,6046,7,13205,2142,-44679,545422,165,-357,2368,9372
208,964,3,3,0,-2,18,3,-1,-2,1,2,206.000,2.000,1125884,17386,-826,-4022,-536,-38,47,36157,-21808,6419,7,13174,2236,-44966,533463,165,-348,2394,9392
208,964,-1,-5,-2,-1,-4,-5,-1,-2,1,2,206.000,2.000,1125884,17386,-826,-4022,-536,-38,47,36157,-21808,6419,7,13174,2236,-44966,533463,165,-348,2394,9392
223,980,-3,-5,0,-1,10,-3,1,-5,1,4,221.000,2.000,1125906,17350,-818,-3978,-535,-43,47,37348,-22707,7186,7,13125,2335,-45090,507026,165,-335,2415,9389
223,980,0,3,-1,1,11,3,2,3,1,4,221.000,2.000,1125906,17350,-818,-3978,-535,-43,47,37348,-22707,7186,7,13125,2335,-45090,507026,165,-335,2415,9389
223,980,2,4,0,0,20,3,2,3,1,4,221.000,2.000,1125906,17350,-818,-3978,-535,-43,47,37348,-22707,7186,7,13125,2335,-45090,507026,165,-335,2415,9389
223,980,3,-5,2,1,-9,-4,-1,0,1,4,221.000,2.000,1125906,17350,-818,-3978,-535,-43,47,37348,-22707,7186,7,13125,2335,-45090,507026,165,-335,2415,9389
245,1002,1,0,-1,-4,10,-5,1,-4,1,6,243.000,2.000,1125928,17346,-860,-3950,-532,-42,52,38560,-23591,7978,7,13094,2419,-45269,486023,165,-326,2436,9396
245,1002,-2,1,1,2,17,2,0,3,1,6,243.000,2.000,1125928,17346,-860,-3950,-532,-42,52,38560,-23591,7978,7,13094,2419,-45269,486023,165,-326,2436,9396
246,1002,-3,2,-1,1,21,4,0,1,1,6,243.000,3.000,1125928,17346,-860,-3950,-532,-42,52,38560,-23591,7978,7,13094,2419,-45269,486023,165,-326,2436,9396
246,1002,-5,-6,0,-4,-11,-3,-3,2,1,6,243.000,3.000,1125928,17346,-860,-3950,-532,-42,52,38560,-23591,7978,7,13094,2419,-45269,486023,165,-326,2436,9396
260,1016,5,-3,-1,-4,7,-4,-1,-3,1,8,265.000,-5.000,1125950,17302,-822,-3988,-530,-39,49,39795,-24460,8796,7,13073,2470,-45363,470220,165,-321,2447,9398
260,1016,-2,3,-1,2,22,1,0,-4,1,8,265.000,-5.000,1125950,17302,-822,-3988,-530,-39,49,39795,-24460,8796,7,13073,2470,-45363,470220,165,-321,2447,9398
268,1025,-2,3,1,2,18,4,-1,0,1,8,265.000,3.000,1125950,17302,-822,-3988,-530,-39,49,39795,-24460,8796,7,13073,2470,-45363,470220,165,-321,2447,9398
268,1025,-2,-6,3,-2,-11,-4,-3,-3,1,8,265.000,3.000,1125950,17302,-822,-3988,-530,-39,49,39795,-24460,8796,7,13073,2470,-45363,470220,165,-321,2447,9398
283,1039,-3,-4,-1,-4,8,-1,-1,-4,1,10,286.000,-3.000,1125972,17362,-886,-4038,-532,-40,42,41054,-25316,9642,7,13061,2513,-45514,459237,165,-316,2459,9408
283,1039,-3,1,-2,0,15,1,1,-4,1,10,286.000,-3.000,1125972,17362,-886,-4038,-532,-40,42,41054,-25316,9642,7,13061,2513,-45514,459237,165,-316,2459,9408
283,1040,0,3,0,1,19,2,1,0,1,10,286.000,-3.000,1125972,17362,-886,-4038,-532,-40,42,41054,-25316,9642,7,13061,2513,-45514,459237,165,-316,2459,9408
283,1040,0,-5,-1,-1,-13,-8,1,-1,1,10,286.000,-3.000,1125972,17362,-886,-4038,-532,-40,42,41054,-25316,9642,7,13061,2513,-45514,459237,165,-316,2459,9408
305,1062,-2,-2,-1,-2,11,-1,-5,-4,1,12,309.000,-4.000,1125994,17344,-852,-4044,-532,-48,43,42343,-26158,10520,7,13074,2550,-45949,443843,165,-316,2479,9456
305,1062,2,1,0,0,17,1,-1,2,1,12,309.000,-4.000,1125994,17344,-852,-4044,-532,-48,43,42343,-26158,10520,7,13074,2550,-45949,443843,165,-316,2479,9456
306,1063,-5,4,-1,1,18,1,0,0,1,12,309.000,-3.000,1125994,17344,-852,-4044,-532,-48,43,42343,-26158,10520,7,13074,2550,-45949,443843,165,-316,2479,9456
306,1063,1,-5,-1,-1,-11,-4,-1,1,1,12,309.000,-3.000,1125994,17344,-852,-4044,-532,-48,43,42343,-26158,10520,7,13074,2550,-45949,443843,165,-316,2479,9456
320,1076,-1,-3,0,-1,15,-3,2,-2,1,13,320.000,0.000,1126005,17370,-756,-4072,-537,-53,51,42999,-26575,10970,7,13083,2543,-46010,433980,165,-318,2479,9464
320,1076,2,4,0,-1,12,4,0,1,1,13,320.000,0.000,1126005,17370,-756,-4072,-537,-53,51,42999,-26575,10970,7,13083,2543,-46010,433980,165,-318,2479,9464
328,1085,3,4,-1,0,14,4,0,0,1,14,331.000,-3.000,1126016,17380,-814,-4024,-541,-39,49,43660,-26988,11427,7,13080,2547,-46003,424917,165,-317,2480,9462
328,1085,6,-6,0,0,-8,-8,0,-1,1,14,331.000,-3.000,1126016,17380,-814,-4024,-541,-39,49,43660,-26988,11427,7,13080,2547,-46003,424917,165,-317,2480,9462
395,1107,-5,-2,-2,-2,12,0,-2,-1,1,20,397.000,-2.000,1126082,17314,-822,-4028,-536,-36,51,47764,-29364,14324,7,13087,2557,-46121,388939,165,-318,2484,9471
395,1107,-2,2,0,0,27,5,0,0,1,20,397.000,-2.000,1126082,17314,-822,-4028,-536,-36,51,47764,-29364,14324,7,13087,2557,-46121,388939,165,-318,2484,9471
395,1108,1,3,-1,2,24,4,0,2,1,20,397.000,-2.000,1126082,17314,-822,-4028,-536,-36,51,47764,-29364,14324,7,13087,2557,-46121,388939,165,-318,2484,9471
395,1108,-2,-5,1,-1,-10,-5,-3,-3,1,20,397.000,-2.000,1126082,17314,-822,-4028,-536,-36,51,47764,-29364,14324,7,13087,2557,-46121,388939,165,-318,2484,9471
395,1122,1,-5,-2,-1,13,-2,2,0,1,20,397.000,-2.000,1126082,17314,-822,-4028,-536,-36,51,47764,-29364,14324,7,13087,2557,-46121,388939,165,-318,2484,9471
395,1122,0,2,0,-1,17,1,0,2,1,20,397.000,-2.000,1126082,17314,-822,-4028,-536,-36,51,47764,-29364,14324,7,13087,2557,-46121,388939,165,-318,2484,9471
395,1123,-1,4,-1,-1,20,3,0,5,1,20,397.000,-2.000,1126082,17314,-822,-4028,-536,-36,51,47764,-29364,14324,7,13087,2557,-46121,388939,165,-318,2484,9471
395,1123,-1,-7,0,-2,-10,-6,0,2,1,20,397.000,-2.000,1126082,17314,-822,-4028,-536,-36,51,47764,-29364,14324,7,13087,2557,-46121,388939,165,-318,2484,9471
396,1144,3,-1,-1,-2,13,-1,0,-6,1,20,397.000,-1.000,1126082,17314,-822,-4028,-536,-36,51,47764,-29364,14324,7,13087,2557,-46121,388939,165,-318,2484,9471
396,1144,-2,2,0,1,14,3,0,-2,1,20,397.000,-1.000,1126082,17314,-822,-4028,-536,-36,51,47764,-29364,14324,7,13087,2557,-46121,388939,165,-318,2484,9471
396,1145,-1,5,0,0,17,1,1,2,1,20,397.000,-1.000,1126082,17314,-822,-4028,-536,-36,51,47764,-29364,14324,7,13087,2557,-46121,388939,165,-318,2484,9471
396,1145,-2,-5,-1,-3,-4,-6,-3,3,1,20,397.000,-1.000,1126082,17314,-822,-4028,-536,-36,51,47764,-29364,14324,7,13087,2557,-46121,388939,165,-318,2484,9471
448,1168,-2,-2,0,-3,12,-1,-3,-1,1,25,453.000,-5.000,1126138,17342,-848,-3978,-537,-40,48,51369,-31205,16942,7,13063,2586,-45994,374014,166,-313,2483,9446
449,1168,2,2,-2,1,19,2,0,0,1,25,453.000,-4.000,1126138,17342,-848,-3978,-537,-40,48,51369,-31205,16942,7,13063,2586,-45994,374014,166,-313,2483,9446
449,1169,1,3,-1,0,18,7,0,1,1,25,453.000,-4.000,1126138,17342,-848,-3978,-537,-40,48,51369,-31205,16942,7,13063,2586,-45994,374014,166,-313,2483,9446
449,1169,-4,-7,0,-1,-8,-6,0,-6,1,25,453.000,-4.000,1126138,17342,-848,-3978,-537,-40,48,51369,-31205,16942,7,13063,2586,-45994,374014,166,-313,2483,9446
450,1182,1,0,0,-1,26,1,-1,-3,1,25,453.000,-3.000,1126138,17342,-848,-3978,-537,-40,48,51369,-31205,16942,7,13063,2586,-45994,374014,166,-313,2483,9446
450,1182,0,4,0,2,14,3,-1,1,1,25,453.000,-3.000,1126138,17342,-848,-3978,-537,-40,48,51369,-31205,16942,7,13063,2586,-45994,374014,166,-313,2483,9446
450,1183,1,3,0,0,17,4,0,3,1,25,453.000,-3.000,1126138,17342,-848,-3978,-537,-40,48,51369,-31205,16942,7,13063,2586,-45994,374014,166,-313,2483,9446
450,1183,0,-7,-1,-2,-2,-6,-1,-2,1,25,453.000,-3.000,1126138,17342,-848,-3978,-537,-40,48,51369,-31205,16942,7,13063,2586,-45994,374014,166,-313,2483,9446
480,1205,2,1,-1,-2,27,1,2,-2,1,28,485.000,-5.000,1126171,17350,-842,-4052,-544,-40,46,53615,-32244,18604,7,13062,2596,-46038,369879,165,-312,2486,9447
480,1205,-1,3,-1,0,18,1,1,3,1,28,485.000,-5.000,1126171,17350,-842,-4052,-544,-40,46,53615,-32244,18604,7,13062,2596,-46038,369879,165,-312,2486,9447
480,1206,0,3,-2,0,19,5,2,3,1,28,485.000,-5.000,1126171,17350,-842,-4052,-544,-40,46,53615,-32244,18604,7,13062,2596,-46038,369879,165,-312,2486,9447
480,1206,-3,-8,-1,-4,-5,-6,-2,-2,1,28,485.000,-5.000,1126171,17350,-842,-4052,-544,-40,46,53615,-32244,18604,7,13062,2596,-46038,369879,165,-312,2486,9447
480,1235,0,1,0,-2,30,1,-2,0,1,28,485.000,-5.000,1126171,17350,-842,-4052,-544,-40,46,53615,-32244,18604,7,13062,2596,-46038,369879,165,-312,2486,9447
480,1235,2,3,0,0,21,0,1,-1,1,28,485.000,-5.000,1126171,17350,-842,-4052,-544,-40,46,53615,-32244,18604,7,13062,2596,-46038,369879,165,-312,2486,9447
480,1236,-3,3,-1,2,18,4,-1,1,1,28,485.000,-5.000,1126171,17350,-842,-4052,-544,-40,46,53615,-32244,18604,7,13062,2596,-46038,369879,165,-312,2486,9447
480,1236,0,-5,1,-1,-3,-7,-3,0,1,28,485.000,-5.000,1126171,17350,-842,-4052,-544,-40,46,53615,-32244,18604,7,13062,2596,-46038,369879,165,-312,2486,9447
486,1241,1,0,0,-1,21,0,-1,-5,1,28,485.000,1.000,1126171,17350,-842,-4052,-544,-40,46,53615,-32244,18604,7,13062,2596,-46038,369879,165,-312,2486,9447
486,1241,1,1,-2,0,8,5,0,-2,1,28,485.000,1.000,1126171,17350,-842,-4052,-544,-40,46,53615,-32244,18604,7,13062,2596,-46038,369879,165,-312,2486,9447
486,1242,1,3,-1,1,18,2,0,-2,1,28,485.000,1.000,1126171,17350,-842,-4052,-544,-40,46,53615,-32244,18604,7,13062,2596,-46038,369879,165,-312,2486,9447
486,1242,-2,-5,-2,0,-7,-8,0,-1,1,28,485.000,1.000,1126171,17350,-842,-4052,-544,-40,46,53615,-32244,18604,7,13062,2596,-46038,369879,165,-312,2486,9447
509,1265,-2,0,-1,-1,25,0,-2,-2,1,30,507.000,2.000,1126193,17340,-772,-4016,-532,-43,49,55148,-32905,19749,7,13062,2593,-46015,367242,165,-312,2484,9443
509,1265,2,3,-1,-1,4,3,-1,1,1,30,507.000,2.000,1126193,17340,-772,-4016,-532,-43,49,55148,-32905,19749,7,13062,2593,-46015,367242,165,-312,2484,9443
509,1266,-2,4,-1,-1,17,5,1,-1,1,30,507.000,2.000,1126193,17340,-772,-4016,-532,-43,49,55148,-32905,19749,7,13062,2593,-46015,367242,165,-312,2484,9443
509,1266,-3,-7,1,0,-9,-7,-2,-2,1,30,507.000,2.000,1126193,17340,-772,-4016,-532,-43,49,55148,-32905,19749,7,13062,2593,-46015,367242,165,-312,2484,9443
538,1294,1,2,-3,-2,20,-1,-1,-2,1,33,541.000,-3.000,1126226,17340,-826,-3986,-538,-48,45,57501,-33850,21525,7,13062,2600,-46035,364325,165,-311,2485,9443
539,1294,0,-1,1,2,11,5,-1,-2,1,33,541.000,-2.000,1126226,17340,-826,-3986,-538,-48,45,57501,-33850,21525,7,13062,2600,-46035,364325,165,-311,2485,9443
539,1295,0,4,0,0,15,5,0,1,1,33,541.000,-2.000,1126226,17340,-826,-3986,-538,-48,45,57501,-33850,21525,7,13062,2600,-46035,364325,165,-311,2485,9443
539,1295,2,-7,-1,-2,-7,-6,-2,0,1,33,541.000,-2.000,1126226,17340,-826,-3986,-538,-48,45,57501,-33850,21525,7,13062,2600,-46035,364325,165,-311,2485,9443
545,1302,-1,1,0,-2,16,1,0,-1,1,33,541.000,4.000,1126226,17340,-826,-3986,-538,-48,45,57501,-33850,21525,7,13062,2600,-46035,364325,165,-311,2485,9443
545,1302,-2,2,-1,1,13,-1,-1,4,1,33,541.000,4.000,1126226,17340,-826,-3986,-538,-48,45,57501,-33850,21525,7,13062,2600,-46035,364325,165,-311,2485,9443
546,1303,2,3,-2,1,12,2,1,1,1,33,541.000,5.000,1126226,17340,-826,-3986,-538,-48,45,57501,-33850,21525,7,13062,2600,-46035,364325,165,-311,2485,9443
546,1303,0,-5,0,0,1,-7,0,-2,1,33,541.000,5.000,1126226,17340,-826,-3986,-538,-48,45,57501,-33850,21525,7,13062,2600,-46035,364325,165,-311,2485,9443
568,1325,0,-1,-1,-2,14,0,0,-5,1,35,563.000,5.000,1126248,17320,-870,-3968,-539,-41,51,59105,-34446,22746,7,13056,2609,-46019,362748,165,-310,2486,9438
569,1325,-1,4,-1,-1,10,1,-1,-2,1,36,574.000,-5.000,1126259,17356,-870,-3978,-533,-42,45,59917,-34734,23369,7,13051,2615,-46006,362125,165,-309,2486,9434
569,1326,1,2,0,1,11,4,-4,-1,1,36,574.000,-5.000,1126259,17356,-870,-3978,-533,-42,45,59917,-34734,23369,7,13051,2615,-46006,362125,165,-309,2486,9434
569,1326,0,-7,0,-2,0,-8,-1,-3,1,36,574.000,-5.000,1126259,17356,-870,-3978,-533,-42,45,59917,-34734,23369,7,13051,2615,-46006,362125,165,-309,2486,9434
591,1347,-2,2,0,-2,13,2,-1,-1,1,38,596.000,-5.000,1126281,17388,-860,-4002,-536,-50,41,61563,-35288,24635,7,13047,2621,-45993,361141,165,-308,2486,9430
591,1347,0,2,-1,0,23,2,1,2,1,38,596.000,-5.000,1126281,17388,-860,-4002,-536,-50,41,61563,-35288,24635,7,13047,2621,-45993,361141,165,-308,2486,9430
592,1348,-1,4,-1,2,14,5,0,4,1,38,596.000,-4.000,1126281,17388,-860,-4002,-536,-50,41,61563,-35288,24635,7,13047,2621,-45993,361141,165,-308,2486,9430
592,1348,-4,-7,1,0,-2,-4,-4,0,1,38,596.000,-4.000,1126281,17388,-860,-4002,-536,-50,41,61563,-35288,24635,7,13047,2621,-45993,361141,165,-308,2486,9430
605,1362,1,-1,0,-2,15,3,1,2,1,39,607.000,-2.000,1126292,17346,-872,-3978,-542,-48,50,62396,-35555,25278,7,13044,2627,-45987,360716,165,-307,2487,9427
605,1362,-1,1,-1,1,16,4,1,0,1,39,607.000,-2.000,1126292,17346,-872,-3978,-542,-48,50,62396,-35555,25278,7,13044,2627,-45987,360716,165,-307,2487,9427
606,1362,4,4,-1,2,13,2,0,4,1,39,607.000,-1.000,1126292,17346,-872,-3978,-542,-48,50,62396,-35555,25278,7,13044,2627,-45987,360716,165,-307,2487,9427
606,1362,-1,-8,-1,-2,3,-10,-2,0,1,39,607.000,-1.000,1126292,17346,-872,-3978,-542,-48,50,62396,-35555,25278,7,13044,2627,-45987,360716,165,-307,2487,9427
628,1384,1,1,-2,-2,12,0,1,-3,1,41,629.000,-1.000,1126314,17360,-834,-3956,-547,-47,49,64081,-36066,26586,7,13039,2631,-45960,359919,165,-306,2487,9421
628,1384,1,3,-1,-2,16,2,0,0,1,41,629.000,-1.000,1126314,17360,-834,-3956,-547,-47,49,64081,-36066,26586,7,13039,2631,-45960,359919,165,-306,2487,9421
630,1387,-2,7,-2,1,12,5,3,1,1,41,629.000,1.000,1126314,17360,-834,-3956,-547,-47,49,64081,-36066,26586,7,13039,2631,-45960,359919,165,-306,2487,9421
630,1387,-1,-7,1,-4,-1,-5,-1,-3,1,41,629.000,1.000,1126314,17360,-834,-3956,-547,-47,49,64081,-36066,26586,7,13039,2631,-45960,359919,165,-306,2487,9421
651,1408,-1,1,-1,0,20,1,-2,-2,1,43,651.000,0.000,1126336,17334,-836,-3938,-540,-45,51,65794,-36546,27922,7,13029,2631,-45847,359468,165,-304,2482,9404
651,1408,-1,2,-1,1,17,2,-1,-1,1,43,651.000,0.000,1126336,17334,-836,-3938,-540,-45,51,65794,-36546,27922,7,13029,2631,-45847,359468,165,-304,2482,9404
653,1409,3,4,0,2,13,5,0,2,1,43,651.000,2.000,1126336,17334,-836,-3938,-540,-45,51,65794,-36546,27922,7,13029,2631,-45847,359468,165,-304,2482,9404
653,1409,-1,-6,0,-2,2,-7,0,-1,1,43,651.000,2.000,1126336,17334,-836,-3938,-540,-45,51,65794,-36546,27922,7,13029,2631,-45847,359468,165,-304,2482,9404
664,1421,-2,2,0,-1,23,2,1,0,1,44,662.000,2.000,1126347,17336,-818,-3944,-535,-41,51,66659,-36773,28600,7,13023,2632,-45786,359307,165,-302,2480,9395
664,1421,-3,2,1,1,16,2,1,2,1,44,662.000,2.000,1126347,17336,-818,-3944,-535,-41,51,66659,-36773,28600,7,13023,2632,-45786,359307,165,-302,2480,9395
673,1430,1,3,0,1,14,4,1,3,1,45,673.000,0.000,1126359,17384,-828,-4054,-537,-37,53,67530,-36993,29284,7,13026,2633,-45826,359135,169,-303,2481,9400
673,1430,-3,-6,-2,-3,1,-8,-3,-3,1,45,673.000,0.000,1126359,17384,-828,-4054,-537,-37,53,67530,-36993,29284,7,13026,2633,-45826,359135,169,-303,2481,9400
688,1445,-2,2,-3,-1,26,3,-1,-4,1,46,684.000,4.000,1126370,17378,-830,-3984,-540,-43,53,68409,-37205,29975,7,13023,2635,-45806,358996,167,-302,2481,9396
688,1445,-1,3,-2,2,11,3,-1,0,1,46,684.000,4.000,1126370,17378,-830,-3984,-540,-43,53,68409,-37205,29975,7,13023,2635,-45806,358996,167,-302,2481,9396
690,1446,-1,4,2,4,14,3,1,1,1,47,695.000,-5.000,1126381,17336,-812,-4030,-540,-50,50,69293,-37408,30672,7,13026,2634,-45826,358842,166,-303,2481,9398
690,1446,2,-9,-2,-1,5,-9,0,-1,1,47,695.000,-5.000,1126381,17336,-812,-4030,-540,-50,50,69293,-37408,30672,7,13026,2634,-45826,358842,166,-303,2481,9398
711,1468,2,2,-1,-1,16,2,1,-2,1,48,706.000,5.000,1126392,17346,-828,-3964,-538,-40,46,70183,-37604,31375,7,13022,2636,-45795,358712,165,-302,2480,9393
711,1468,0,2,0,0,20,2,1,2,1,48,706.000,5.000,1126392,17346,-828,-3964,-538,-40,46,70183,-37604,31375,7,13022,2636,-45795,358712,165,-302,2480,9393
712,1469,-3,5,-1,1,14,4,-1,-2,1,49,717.000,-5.000,1126403,17296,-808,-3984,-536,-42,51,71077,-37790,32083,7,13021,2635,-45781,358550,165,-301,2479,9390
712,1469,1,-7,1,-4,-1,-7,-2,-4,1,49,717.000,-5.000,1126403,17296,-808,-3984,-536,-42,51,71077,-37790,32083,7,13021,2635,-45781,358550,165,-301,2479,9390
724,1481,1,2,-1,0,10,1,0,-4,1,50,728.000,-4.000,1126414,17364,-794,-4024,-545,-44,47,71978,-37968,32798,7,13022,2633,-45779,358393,165,-302,2478,9390
724,1481,-2,4,-1,1,11,2,1,-1,1,50,728.000,-4.000,1126414,17364,-794,-4024,-545,-44,47,71978,-37968,32798,7,13022,2633,-45779,358393,165,-302,2478,9390
733,1490,-1,6,1,1,12,3,2,3,1,50,728.000,5.000,1126414,17364,-794,-4024,-545,-44,47,71978,-37968,32798,7,13022,2633,-45779,358393,165,-302,2478,9390
733,1490,-1,-5,0,-1,4,-8,-2,-2,1,50,728.000,5.000,1126414,17364,-794,-4024,-545,-44,47,71978,-37968,32798,7,13022,2633,-45779,358393,165,-302,2478,9390
748,1505,1,2,1,-1,22,2,-2,1,1,52,751.000,-3.000,1126436,17320,-850,-3988,-538,-46,49,73794,-38297,34243,7,13024,2635,-45804,358109,165,-302,2479,9391
748,1505,-1,1,2,0,8,2,0,4,1,52,751.000,-3.000,1126436,17320,-850,-3988,-538,-46,49,73794,-38297,34243,7,13024,2635,-45804,358109,165,-302,2479,9391
750,1506,0,4,-3,1,13,4,-1,3,1,52,751.000,-1.000,1126436,17320,-850,-3988,-538,-46,49,73794,-38297,34243,7,13024,2635,-45804,358109,165,-302,2479,9391
750,1506,-2,-7,-1,0,7,-5,0,-2,1,52,751.000,-1.000,1126436,17320,-850,-3988,-538,-46,49,73794,-38297,34243,7,13024,2635,-45804,358109,165,-302,2479,9391
771,1527,1,1,0,1,14,3,1,-5,1,54,773.000,-2.000,1126458,17400,-812,-3984,-536,-44,39,75632,-38591,35710,7,13025,2635,-45822,357925,165,-302,2479,9392
771,1527,1,3,-2,0,10,4,-1,1,1,54,773.000,-2.000,1126458,17400,-812,-3984,-536,-44,39,75632,-38591,35710,7,13025,2635,-45822,357925,165,-302,2479,9392
772,1529,2,5,-1,0,12,3,1,5,1,54,773.000,-1.000,1126458,17400,-812,-3984,-536,-44,39,75632,-38591,35710,7,13025,2635,-45822,357925,165,-302,2479,9392
772,1529,1,-5,-1,-3,0,-6,-3,1,1,54,773.000,-1.000,1126458,17400,-812,-3984,-536,-44,39,75632,-38591,35710,7,13025,2635,-45822,357925,165,-302,2479,9392
793,1550,1,4,-1,-2,26,3,1,2,1,56,795.000,-2.000,1126480,17350,-844,-3990,-534,-43,43,77487,-38848,37195,7,13022,2638,-45815,357734,165,-301,2479,9389
793,1550,1,3,1,2,5,1,-2,2,1,56,795.000,-2.000,1126480,17350,-844,-3990,-534,-43,43,77487,-38848,37195,7,13022,2638,-45815,357734,165,-301,2479,9389
795,1551,-1,5,-1,-1,12,5,-1,0,1,56,795.000,0.000,1126480,17350,-844,-3990,-534,-43,43,77487,-38848,37195,7,13022,2638,-45815,357734,165,-301,2479,9389
795,1551,0,-8,-1,-3,7,-9,1,-5,1,56,795.000,0.000,1126480,17350,-844,-3990,-534,-43,43,77487,-38848,37195,7,13022,2638,-45815,357734,165,-301,2479,9389
816,1572,-2,1,0,0,18,2,1,-4,1,58,817.000,-1.000,1126502,17354,-876,-3990,-537,-47,46,79358,-39068,38696,7,13024,2646,-45874,357568,165,-301,2482,9394
816,1572,-1,0,-1,1,18,3,1,4,1,58,817.000,-1.000,1126502,17354,-876,-3990,-537,-47,46,79358,-39068,38696,7,13024,2646,-45874,357568,165,-301,2482,9394
817,1574,2,5,0,1,12,5,-1,1,1,58,817.000,0.000,1126502,17354,-876,-3990,-537,-47,46,79358,-39068,38696,7,13024,2646,-45874,357568,165,-301,2482,9394
817,1574,-2,-11,-1,-4,0,-6,-1,-1,1,58,817.000,0.000,1126502,17354,-876,-3990,-537,-47,46,79358,-39068,38696,7,13024,2646,-45874,357568,165,-301,2482,9394
831,1588,0,3,-1,-2,25,2,-1,1,1,59,828.000,3.000,1126513,17374,-832,-3954,-545,-46,48,80298,-39165,39451,7,13019,2647,-45841,357510,165,-300,2481,9388
831,1588,-1,2,0,0,21,3,1,0,1,59,828.000,3.000,1126513,17374,-832,-3954,-545,-46,48,80298,-39165,39451,7,13019,2647,-45841,357510,165,-300,2481,9388
832,1589,-2,2,0,2,15,3,1,4,1,59,828.000,4.000,1126513,17374,-832,-3954,-545,-46,48,80298,-39165,39451,7,13019,2647,-45841,357510,165,-300,2481,9388
832,1589,-4,-9,1,0,8,-7,-2,-5,1,59,828.000,4.000,1126513,17374,-832,-3954,-545,-46,48,80298,-39165,39451,7,13019,2647,-45841,357510,165,-300,2481,9388
844,1601,-1,2,0,0,20,5,1,-3,1,60,839.000,5.000,1126524,17364,-844,-3994,-548,-41,47,81241,-39252,40210,7,13018,2649,-45844,357424,165,-299,2481,9387
844,1601,2,2,-1,1,7,-1,-1,-1,1,60,839.000,5.000,1126524,17364,-844,-3994,-548,-41,47,81241,-39252,40210,7,13018,2649,-45844,357424,165,-299,2481,9387
853,1610,1,4,-1,-1,15,5,0,2,1,61,850.000,3.000,1126535,17372,-836,-4036,-554,-43,40,82188,-39330,40972,7,13020,2649,-45869,357340,165,-300,2482,9389
853,1610,0,-7,-1,-3,6,-9,-2,-2,1,61,850.000,3.000,1126535,17372,-836,-4036,-554,-43,40,82188,-39330,40972,7,13020,2649,-45869,357340,165,-300,2482,9389
869,1625,0,4,-1,0,27,4,0,-2,1,63,872.000,-3.000,1126557,17344,-800,-4074,-536,-43,47,84089,-39455,42504,7,13027,2648,-45925,357230,165,-301,2483,9395
869,1625,3,2,0,1,14,1,-1,-1,1,63,872.000,-3.000,1126557,17344,-800,-4074,-536,-43,47,84089,-39455,42504,7,13027,2648,-45925,357230,165,-301,2483,9395
874,1630,-5,2,0,3,14,3,-1,-1,1,63,872.000,2.000,1126557,17344,-800,-4074,-536,-43,47,84089,-39455,42504,7,13027,2648,-45925,357230,165,-301,2483,9395
874,1630,-1,-7,0,-2,6,-6,-2,-3,1,63,872.000,2.000,1126557,17344,-800,-4074,-536,-43,47,84089,-39455,42504,7,13027,2648,-45925,357230,165,-301,2483,9395
891,1647,1,4,-2,-1,11,2,-1,0,1,65,897.000,-6.000,1126580,17362,-786,-4020,-539,-39,47,85997,-39541,44044,7,13029,2644,-45928,357183,167,-301,2482,9395
891,1647,1,3,0,-1,8,1,1,2,1,65,897.000,-6.000,1126580,17362,-786,-4020,-539,-39,47,85997,-39541,44044,7,13029,2644,-45928,357183,167,-301,2482,9395
892,1649,2,3,-2,1,12,4,-1,3,1,65,897.000,-5.000,1126580,17362,-786,-4020,-539,-39,47,85997,-39541,44044,7,13029,2644,-45928,357183,167,-301,2482,9395
892,1649,1,-9,0,-3,4,-7,-3,-2,1,65,897.000,-5.000,1126580,17362,-786,-4020,-539,-39,47,85997,-39541,44044,7,13029,2644,-45928,357183,167,-301,2482,9395
905,1662,2,1,1,0,8,-1,1,-2,1,66,905.000,0.000,1126591,17336,-818,-3990,-538,-43,48,86954,-39569,44817,7,13028,2644,-45920,357166,166,-301,2482,9393
905,1662,-2,1,-1,0,10,1,-2,-2,1,66,905.000,0.000,1126591,17336,-818,-3990,-538,-43,48,86954,-39569,44817,7,13028,2644,-45920,357166,166,-301,2482,9393
913,1670,-2,1,-1,2,10,1,1,4,1,67,916.000,-3.000,1126602,17362,-822,-4094,-541,-48,43,87913,-39588,45590,7,13035,2644,-45966,357152,166,-302,2483,9399
913,1670,-1,-7,0,-2,5,-8,-2,-2,1,67,916.000,-3.000,1126602,17362,-822,-4094,-541,-48,43,87913,-39588,45590,7,13035,2644,-45966,357152,166,-302,2483,9399
936,1693,-3,1,0,-2,12,2,-2,-2,1,69,938.000,-2.000,1126624,17372,-830,-3974,-533,-46,49,89832,-39594,47139,7,13033,2642,-45945,357155,165,-301,2481,9394
936,1693,2,2,-1,-1,9,1,1,0,1,69,938.000,-2.000,1126624,17372,-830,-3974,-533,-46,49,89832,-39594,47139,7,13033,2642,-45945,357155,165,-301,2481,9394
937,1694,1,3,1,1,8,4,1,2,1,69,938.000,-1.000,1126624,17372,-830,-3974,-533,-46,49,89832,-39594,47139,7,13033,2642,-45945,357155,165,-301,2481,9394
937,1694,-1,-10,0,-1,8,-8,-2,0,1,69,938.000,-1.000,1126624,17372,-830,-3974,-533,-46,49,89832,-39594,47139,7,13033,2642,-45945,357155,165,-301,2481,9394
951,1708,-3,-2,-2,-1,11,3,1,0,1,70,949.000,2.000,1126635,17328,-828,-4028,-536,-45,47,90791,-39583,47913,7,13035,2643,-45961,357155,165,-302,2482,9396
951,1708,-4,3,1,0,14,-1,2,3,1,70,949.000,2.000,1126635,17328,-828,-4028,-536,-45,47,90791,-39583,47913,7,13035,2643,-45961,357155,165,-302,2482,9396
952,1709,-2,3,2,2,9,2,2,2,1,70,949.000,3.000,1126635,17328,-828,-4028,-536,-45,47,90791,-39583,47913,7,13035,2643,-45961,357155,165,-302,2482,9396
952,1709,-1,-5,0,-1,5,-7,-1,-3,1,70,949.000,3.000,1126635,17328,-828,-4028,-536,-45,47,90791,-39583,47913,7,13035,2643,-45961,357155,165,-302,2482,9396
973,1730,0,4,-2,0,14,3,0,-4,1,72,972.000,1.000,1126657,17376,-850,-4032,-535,-40,45,92709,-39530,49462,7,13037,2647,-45994,357172,165,-302,2483,9398
973,1730,0,-2,-2,1,10,3,-1,0,1,72,972.000,1.000,1126657,17376,-850,-4032,-535,-40,45,92709,-39530,49462,7,13037,2647,-45994,357172,165,-302,2483,9398
975,1731,-1,4,0,2,6,3,0,1,1,72,972.000,3.000,1126657,17376,-850,-4032,-535,-40,45,92709,-39530,49462,7,13037,2647,-45994,357172,165,-302,2483,9398
975,1731,0,-10,-1,-4,6,-9,-3,-4,1,72,972.000,3.000,1126657,17376,-850,-4032,-535,-40,45,92709,-39530,49462,7,13037,2647,-45994,357172,165,-302,2483,9398
989,1745,1,4,-2,-3,24,2,0,-2,1,74,994.000,-5.000,1126679,17320,-810,-4034,-541,-42,54,94622,-39438,51004,7,13038,2650,-46014,357192,165,-302,2484,9399
989,1745,1,5,0,0,18,3,-1,1,1,74,994.000,-5.000,1126679,17320,-810,-4034,-541,-42,54,94622,-39438,51004,7,13038,2650,-46014,357192,165,-302,2484,9399
990,1747,2,3,2,2,6,4,1,2,1,74,994.000,-4.000,1126679,17320,-810,-4034,-541,-42,54,94622,-39438,51004,7,13038,2650,-46014,357192,165,-302,2484,9399
990,1747,-3,-10,-1,-3,4,-7,-1,-3,1,74,994.000,-4.000,1126679,17320,-810,-4034,-541,-42,54,94622,-39438,51004,7,13038,2650,-46014,357192,165,-302,2484,9399
1011,1767,-3,3,-2,-1,20,4,2,1,1,76,1016.000,-5.000,1126701,17372,-828,-3878,-539,-41,46,96531,-39306,52542,7,13029,2652,-45973,357219,165,-300,2482,9391
1011,1767,0,0,-1,1,18,2,-1,0,1,76,1016.000,-5.000,1126701,17372,-828,-3878,-539,-41,46,96531,-39306,52542,7,13029,2652,-45973,357219,165,-300,2482,9391
1017,1774,0,4,-1,1,8,2,1,1,1,76,1016.000,1.000,1126701,17372,-828,-3878,-539,-41,46,96531,-39306,52542,7,13029,2652,-45973,357219,165,-300,2482,9391
1017,1774,4,-10,-1,-3,5,-10,-3,-1,1,76,1016.000,1.000,1126701,17372,-828,-3878,-539,-41,46,96531,-39306,52542,7,13029,2652,-45973,357219,165,-300,2482,9391
1041,1797,-1,4,-2,0,16,2,2,2,1,78,1038.000,3.000,1126723,17340,-832,-3986,-532,-37,43,98434,-39135,54074,7,13031,2653,-45999,357235,165,-300,2483,9393
1041,1797,-1,2,0,1,24,2,-1,3,1,78,1038.000,3.000,1126723,17340,-832,-3986,-532,-37,43,98434,-39135,54074,7,13031,2653,-45999,357235,165,-300,2483,9393
1043,1799,0,2,-1,2,8,3,0,4,1,78,1038.000,5.000,1126723,17340,-832,-3986,-532,-37,43,98434,-39135,54074,7,13031,2653,-45999,357235,165,-300,2483,9393
1043,1799,-1,-8,0,-3,6,-8,-4,-4,1,78,1038.000,5.000,1126723,17340,-832,-3986,-532,-37,43,98434,-39135,54074,7,13031,2653,-45999,357235,165,-300,2483,9393
1048,1805,1,4,0,3,26,4,0,1,1,79,1049.000,-1.000,1126734,17368,-814,-3998,-535,-44,42,99381,-39034,54835,7,13030,2652,-45992,357249,165,-300,2482,9391
1048,1805,-1,2,-1,0,10,0,0,1,1,79,1049.000,-1.000,1126734,17368,-814,-3998,-535,-44,42,99381,-39034,54835,7,13030,2652,-45992,357249,165,-300,2482,9391
1050,1806,-2,2,0,2,8,4,2,2,1,79,1049.000,1.000,1126734,17368,-814,-3998,-535,-44,42,99381,-39034,54835,7,13030,2652,-45992,357249,165,-300,2482,9391
1050,1806,-2,-7,0,-4,6,-7,-2,-3,1,79,1049.000,1.000,1126734,17368,-814,-3998,-535,-44,42,99381,-39034,54835,7,13030,2652,-45992,357249,165,-300,2482,9391
1071,1827,-2,4,-1,-2,14,4,0,-4,1,81,1071.000,0.000,1126756,17348,-848,-4014,-538,-53,44,101276,-38804,56354,7,13026,2658,-45992,357256,165,-298,2483,9388
1071,1827,-1,3,-1,1,16,2,1,-4,1,81,1071.000,0.000,1126756,17348,-848,-4014,-538,-53,44,101276,-38804,56354,7,13026,2658,-45992,357256,165,-298,2483,9388
1072,1829,3,3,-1,-1,7,0,1,2,1,81,1071.000,1.000,1126756,17348,-848,-4014,-538,-53,44,101276,-38804,56354,7,13026,2658,-45992,357256,165,-298,2483,9388
1072,1829,-3,-7,-1,-1,3,-9,0,-4,1,81,1071.000,1.000,1126756,17348,-848,-4014,-538,-53,44,101276,-38804,56354,7,13026,2658,-45992,357256,165,-298,2483,9388
1093,1850,1,3,0,-1,13,4,0,0,1,83,1093.000,0.000,1126779,17362,-828,-3994,-539,-47,54,103164,-38534,57864,7,13025,2659,-45990,357260,165,-298,2482,9386
1093,1850,-1,1,-2,2,9,1,-1,3,1,83,1093.000,0.000,1126779,17362,-828,-3994,-539,-47,54,103164,-38534,57864,7,13025,2659,-45990,357260,165,-298,2482,9386
1095,1851,1,0,1,2,6,0,0,2,1,83,1093.000,2.000,1126779,17362,-828,-3994,-539,-47,54,103164,-38534,57864,7,13025,2659,-45990,357260,165,-298,2482,9386
1095,1851,-1,-7,-2,-2,7,-7,-1,1,1,83,1093.000,2.000,1126779,17362,-828,-3994,-539,-47,54,103164,-38534,57864,7,13025,2659,-45990,357260,165,-298,2482,9386
1108,1865,0,4,-1,0,25,4,0,1,1,84,1105.000,3.000,1126790,17362,-812,-4030,-535,-43,43,104102,-38384,58613,7,13027,2658,-45996,357258,165,-298,2482,9386
1108,1865,1,3,-1,0,9,3,0,2,1,84,1105.000,3.000,1126790,17362,-812,-4030,-535,-43,43,104102,-38384,58613,7,13027,2658,-45996,357258,165,-298,2482,9386
1110,1866,0,0,1,1,8,2,-1,2,1,84,1105.000,5.000,1126790,17362,-812,-4030,-535,-43,43,104102,-38384,58613,7,13027,2658,-45996,357258,165,-298,2482,9386
1110,1866,-2,-9,0,-3,6,-5,0,-4,1,84,1105.000,5.000,1126790,17362,-812,-4030,-535,-43,43,104102,-38384,58613,7,13027,2658,-45996,357258,165,-298,2482,9386
1131,1888,1,6,-2,1,13,1,-2,3,1,86,1127.000,4.000,1126812,17342,-828,-3958,-533,-44,41,105966,-38056,60099,7,13027,2658,-46005,357278,165,-298,2482,9386
1131,1888,0,3,0,-1,11,2,0,2,1,86,1127.000,4.000,1126812,17342,-828,-3958,-533,-44,41,105966,-38056,60099,7,13027,2658,-46005,357278,165,-298,2482,9386
1132,1889,1,3,0,0,9,2,-1,1,1,86,1127.000,5.000,1126812,17342,-828,-3958,-533,-44,41,105966,-38056,60099,7,13027,2658,-46005,357278,165,-298,2482,9386
1132,1889,3,-5,1,-4,6,-10,0,-5,1,86,1127.000,5.000,1126812,17342,-828,-3958,-533,-44,41,105966,-38056,60099,7,13027,2658,-46005,357278,165,-298,2482,9386
1153,1910,-4,2,-1,1,13,3,-1,-2,1,88,1149.000,4.000,1126834,17324,-820,-3976,-546,-44,49,107810,-37692,61563,7,13029,2660,-46025,357304,165,-298,2482,9386
1153,1910,1,2,-1,2,19,1,-1,-1,1,88,1149.000,4.000,1126834,17324,-820,-3976,-546,-44,49,107810,-37692,61563,7,13029,2660,-46025,357304,165,-298,2482,9386
1155,1912,-1,-1,-1,1,4,0,0,1,1,89,1160.000,-5.000,1126846,17360,-758,-3968,-544,-41,42,108725,-37496,62288,7,13026,2653,-45995,357319,166,-297,2480,9382
1155,1912,-1,-8,-1,-4,8,-9,-4,-4,1,89,1160.000,-5.000,1126846,17360,-758,-3968,-544,-41,42,108725,-37496,62288,7,13026,2653,-45995,357319,166,-297,2480,9382
1168,1924,1,4,1,1,26,4,0,1,1,90,1171.000,-3.000,1126857,17346,-814,-4036,-537,-40,44,109635,-37291,63006,8,13028,2653,-46005,357309,165,-298,2480,9383
1168,1924,-1,2,-1,-2,9,0,0,2,1,90,1171.000,-3.000,1126857,17346,-814,-4036,-537,-40,44,109635,-37291,63006,8,13028,2653,-46005,357309,165,-298,2480,9383
1174,1931,1,0,0,2,6,0,-2,2,1,90,1171.000,3.000,1126857,17346,-814,-4036,-537,-40,44,109635,-37291,63006,8,13028,2653,-46005,357309,165,-298,2480,9383
1175,1931,-1,-9,-1,-1,6,-7,-3,-4,1,90,1171.000,4.000,1126857,17346,-814,-4036,-537,-40,44,109635,-37291,63006,8,13028,2653,-46005,357309,165,-298,2480,9383
1191,1947,2,3,1,1,15,4,0,-1,1,92,1194.000,-3.000,1126879,17348,-876,-4020,-541,-48,41,111440,-36853,64427,7,13031,2656,-46030,357310,165,-298,2481,9384
1191,1947,0,3,0,1,14,4,2,0,1,92,1194.000,-3.000,1126879,17348,-876,-4020,-541,-48,41,111440,-36853,64427,7,13031,2656,-46030,357310,165,-298,2481,9384
1192,1949,-1,1,-1,1,6,-1,0,2,1,92,1194.000,-2.000,1126879,17348,-876,-4020,-541,-48,41,111440,-36853,64427,7,13031,2656,-46030,357310,165,-298,2481,9384
1192,1949,-2,-6,0,-2,6,-9,-4,-6,1,92,1194.000,-2.000,1126879,17348,-876,-4020,-541,-48,41,111440,-36853,64427,7,13031,2656,-46030,357310,165,-298,2481,9384
1213,1970,0,3,-1,0,14,3,0,0,1,94,1216.000,-3.000,1126901,17374,-824,-4028,-535,-45,46,113220,-36380,65822,7,13029,2657,-46034,357332,165,-297,2481,9383
1213,1970,1,0,1,1,10,2,1,0,1,94,1216.000,-3.000,1126901,17374,-824,-4028,-535,-45,46,113220,-36380,65822,7,13029,2657,-46034,357332,165,-297,2481,9383
1215,1971,-2,0,-1,1,1,1,3,4,1,94,1216.000,-1.000,1126901,17374,-824,-4028,-535,-45,46,113220,-36380,65822,7,13029,2657,-46034,357332,165,-297,2481,9383
1215,1971,-1,-7,0,-3,7,-4,0,-3,1,94,1216.000,-1.000,1126901,17374,-824,-4028,-535,-45,46,113220,-36380,65822,7,13029,2657,-46034,357332,165,-297,2481,9383
1228,1985,3,4,-3,-1,26,2,-1,2,1,95,1227.000,1.000,1126912,17350,-880,-3990,-532,-45,46,114101,-36130,66509,7,13028,2662,-46046,357342,165,-297,2482,9382
1228,1985,1,4,0,1,15,2,0,2,1,95,1227.000,1.000,1126912,17350,-880,-3990,-532,-45,46,114101,-36130,66509,7,13028,2662,-46046,357342,165,-297,2482,9382
1242,1999,-3,-1,-1,1,2,-1,-1,3,1,96,1238.000,4.000,1126924,17392,-866,-3982,-538,-45,44,114976,-35872,67190,7,13025,2665,-46049,357358,166,-296,2482,9381
1242,1999,-3,-7,0,-3,9,-8,-2,-2,1,96,1238.000,4.000,1126924,17392,-866,-3982,-538,-45,44,114976,-35872,67190,7,13025,2665,-46049,357358,166,-296,2482,9381
1251,2007,2,0,0,1,12,6,0,0,1,97,1249.000,2.000,1126935,17368,-856,-4054,-547,-43,54,115844,-35606,67864,7,13029,2668,-46074,357370,166,-296,2483,9384
1251,2007,0,0,-1,-1,12,2,0,0,1,97,1249.000,2.000,1126935,17368,-856,-4054,-547,-43,54,115844,-35606,67864,7,13029,2668,-46074,357370,166,-296,2483,9384
1252,2009,0,1,0,0,1,-1,-3,-3,1,97,1249.000,3.000,1126935,17368,-856,-4054,-547,-43,54,115844,-35606,67864,7,13029,2668,-46074,357370,166,-296,2483,9384
1252,2009,-1,-6,-2,-3,8,-6,-1,-3,1,97,1249.000,3.000,1126935,17368,-856,-4054,-547,-43,54,115844,-35606,67864,7,13029,2668,-46074,357370,166,-296,2483,9384
1273,2030,0,5,0,0,5,3,3,-3,1,99,1272.000,1.000,1126957,17372,-824,-3990,-540,-49,46,117561,-35049,69191,7,13027,2667,-46072,357418,165,-296,2482,9381
1273,2030,-1,2,0,1,9,1,2,2,1,99,1272.000,1.000,1126957,17372,-824,-3990,-540,-49,46,117561,-35049,69191,7,13027,2667,-46072,357418,165,-296,2482,9381
1275,2031,-1,-1,-1,1,0,-1,-3,4,1,99,1272.000,3.000,1126957,17372,-824,-3990,-540,-49,46,117561,-35049,69191,7,13027,2667,-46072,357418,165,-296,2482,9381
1275,2031,-4,-9,-1,-6,7,-5,-1,-4,1,99,1272.000,3.000,1126957,17372,-824,-3990,-540,-49,46,117561,-35049,69191,7,13027,2667,-46072,357418,165,-296,2482,9381
1296,2053,-1,4,-2,0,3,0,0,1,1,101,1294.000,2.000,1126979,17354,-810,-4002,-543,-49,49,119253,-34460,70489,7,13029,2668,-46085,357461,165,-296,2483,9381
1296,2053,0,2,0,-1,4,2,0,2,1,101,1294.000,2.000,1126979,17354,-810,-4002,-543,-49,49,119253,-34460,70489,7,13029,2668,-46085,357461,165,-296,2483,9381
1297,2054,5,2,0,1,-8,-2,0,2,1,101,1294.000,3.000,1126979,17354,-810,-4002,-543,-49,49,119253,-34460,70489,7,13029,2668,-46085,357461,165,-296,2483,9381
1297,2054,1,-8,1,-2,7,-8,-1,-5,1,101,1294.000,3.000,1126979,17354,-810,-4002,-543,-49,49,119253,-34460,70489,7,13029,2668,-46085,357461,165,-296,2483,9381
1374,2068,1,1,-2,1,11,2,0,-3,1,102,1375.000,-1.000,1126990,17396,-840,-4014,-541,-37,43,120088,-34153,71128,7,13028,2669,-46090,357484,165,-296,2483,9381
1374,2068,1,2,1,1,12,0,0,2,1,102,1375.000,-1.000,1126990,17396,-840,-4014,-541,-37,43,120088,-34153,71128,7,13028,2669,-46090,357484,165,-296,2483,9381
1374,2069,-3,-3,0,2,3,-1,-2,0,1,102,1375.000,-1.000,1126990,17396,-840,-4014,-541,-37,43,120088,-34153,71128,7,13028,2669,-46090,357484,165,-296,2483,9381
1374,2069,-3,-7,-2,-1,8,-7,-2,-3,1,102,1375.000,-1.000,1126990,17396,-840,-4014,-541,-37,43,120088,-34153,71128,7,13028,2669,-46090,357484,165,-296,2483,9381
1374,2090,-2,4,2,-1,12,3,0,4,1,102,1375.000,-1.000,1126990,17396,-840,-4014,-541,-37,43,120088,-34153,71128,7,13028,2669,-46090,357484,165,-296,2483,9381
1374,2090,0,1,-2,0,10,1,0,1,1,102,1375.000,-1.000,1126990,17396,-840,-4014,-541,-37,43,120088,-34153,71128,7,13028,2669,-46090,357484,165,-296,2483,9381
1374,2091,2,0,1,-1,2,0,0,4,1,102,1375.000,-1.000,1126990,17396,-840,-4014,-541,-37,43,120088,-34153,71128,7,13028,2669,-46090,357484,165,-296,2483,9381
1374,2091,2,-8,-1,-3,4,-7,-1,-5,1,102,1375.000,-1.000,1126990,17396,-840,-4014,-541,-37,43,120088,-34153,71128,7,13028,2669,-46090,357484,165,-296,2483,9381
1374,2105,-1,1,-1,0,18,1,2,-3,1,102,1375.000,-1.000,1126990,17396,-840,-4014,-541,-37,43,120088,-34153,71128,7,13028,2669,-46090,357484,165,-296,2483,9381
1374,2105,0,0,0,0,15,3,0,0,1,102,1375.000,-1.000,1126990,17396,-840,-4014,-541,-37,43,120088,-34153,71128,7,13028,2669,-46090,357484,165,-296,2483,9381
1374,2111,1,-2,-1,0,-5,0,0,1,1,102,1375.000,-1.000,1126990,17396,-840,-4014,-541,-37,43,120088,-34153,71128,7,13028,2669,-46090,357484,165,-296,2483,9381
1374,2111,-1,-6,-1,-4,4,-9,-2,-1,1,102,1375.000,-1.000,1126990,17396,-840,-4014,-541,-37,43,120088,-34153,71128,7,13028,2669,-46090,357484,165,-296,2483,9381
1374,2128,-1,3,-3,-1,13,3,0,3,1,102,1375.000,-1.000,1126990,17396,-840,-4014,-541,-37,43,120088,-34153,71128,7,13028,2669,-46090,357484,165,-296,2483,9381
1374,2128,0,3,-2,0,18,2,-2,0,1,102,1375.000,-1.000,1126990,17396,-840,-4014,-541,-37,43,120088,-34153,71128,7,13028,2669,-46090,357484,165,-296,2483,9381
1374,2129,-2,-2,2,-1,-3,-4,-1,1,1,102,1375.000,-1.000,1126990,17396,-840,-4014,-541,-37,43,120088,-34153,71128,7,13028,2669,-46090,357484,165,-296,2483,9381
1374,2129,-1,-8,1,-3,6,-7,-1,-1,1,102,1375.000,-1.000,1126990,17396,-840,-4014,-541,-37,43,120088,-34153,71128,7,13028,2669,-46090,357484,165,-296,2483,9381
1393,2150,0,2,2,-2,13,3,0,0,1,110,1394.000,-1.000,1127079,17350,-810,-3994,-539,-44,43,126519,-31433,75959,7,13032,2678,-46170,357739,165,-296,2486,9384
1393,2150,-4,3,0,1,22,3,2,-2,1,110,1394.000,-1.000,1127079,17350,-810,-3994,-539,-44,43,126519,-31433,75959,7,13032,2678,-46170,357739,165,-296,2486,9384
1395,2152,0,-3,-2,0,-8,-1,0,-1,1,110,1394.000,1.000,1127079,17350,-810,-3994,-539,-44,43,126519,-31433,75959,7,13032,2678,-46170,357739,165,-296,2486,9384
1395,2152,1,-7,-1,-2,8,-7,-1,-4,1,110,1394.000,1.000,1127079,17350,-810,-3994,-539,-44,43,126519,-31433,75959,7,13032,2678,-46170,357739,165,-296,2486,9384
1408,2165,2,3,1,0,14,4,-1,0,1,111,1405.000,3.000,1127091,17368,-804,-4082,-532,-42,45,127292,-31061,76528,7,13038,2675,-46187,357780,166,-297,2486,9386
1408,2165,-1,0,-3,1,13,0,1,0,1,111,1405.000,3.000,1127091,17368,-804,-4082,-532,-42,45,127292,-31061,76528,7,13038,2675,-46187,357780,166,-297,2486,9386
1414,2171,-2,-1,0,1,-1,-2,1,1,1,112,1416.000,-2.000,1127102,17410,-796,-4004,-539,-40,51,128057,-30684,77089,7,13036,2673,-46180,357826,165,-296,2484,9385
1414,2171,0,-7,-1,-1,6,-4,-2,-5,1,112,1416.000,-2.000,1127102,17410,-796,-4004,-539,-40,51,128057,-30684,77089,7,13036,2673,-46180,357826,165,-296,2484,9385
1431,2188,1,3,0,1,9,2,0,1,1,113,1428.000,3.000,1127113,17372,-764,-4050,-532,-46,49,128815,-30299,77642,7,13039,2668,-46180,357872,165,-297,2483,9385
1431,2188,-2,4,-1,0,15,3,-1,2,1,113,1428.000,3.000,1127113,17372,-764,-4050,-532,-46,49,128815,-30299,77642,7,13039,2668,-46180,357872,165,-297,2483,9385
1432,2189,0,0,1,0,-2,-3,0,-1,1,113,1428.000,4.000,1127113,17372,-764,-4050,-532,-46,49,128815,-30299,77642,7,13039,2668,-46180,357872,165,-297,2483,9385
1432,2189,-2,-6,-1,-4,6,-4,-2,-6,1,113,1428.000,4.000,1127113,17372,-764,-4050,-532,-46,49,128815,-30299,77642,7,13039,2668,-46180,357872,165,-297,2483,9385
1452,2209,0,2,-1,-1,16,1,-1,-3,1,115,1450.000,2.000,1127135,17306,-814,-4052,-537,-42,52,130310,-29512,78723,7,13047,2667,-46208,357971,165,-298,2484,9388
1452,2209,3,0,0,0,14,2,-2,-1,1,115,1450.000,2.000,1127135,17306,-814,-4052,-537,-42,52,130310,-29512,78723,7,13047,2667,-46208,357971,165,-298,2484,9388
1461,2217,-3,-4,0,0,-1,-2,-2,3,1,116,1461.000,0.000,1127146,17410,-800,-4052,-537,-49,55,131048,-29110,79253,7,13050,2666,-46214,358025,165,-298,2483,9389
1461,2217,-1,-6,0,-2,7,-5,0,-1,1,116,1461.000,0.000,1127146,17410,-800,-4052,-537,-49,55,131048,-29110,79253,7,13050,2666,-46214,358025,165,-298,2483,9389
1467,2224,0,5,-1,-1,17,3,-1,-1,1,117,1472.000,-5.000,1127157,17320,-840,-4016,-540,-54,56,131779,-28702,79774,7,13051,2668,-46221,358080,165,-298,2483,9389
1467,2224,-3,2,2,0,13,2,-1,0,1,117,1472.000,-5.000,1127157,17320,-840,-4016,-540,-54,56,131779,-28702,79774,7,13051,2668,-46221,358080,165,-298,2483,9389
1476,2232,0,-5,-1,0,-3,-3,3,1,1,117,1472.000,4.000,1127157,17320,-840,-4016,-540,-54,56,131779,-28702,79774,7,13051,2668,-46221,358080,165,-298,2483,9389
1476,2232,-1,-4,-1,-4,8,-3,1,-1,1,117,1472.000,4.000,1127157,17320,-840,-4016,-540,-54,56,131779,-28702,79774,7,13051,2668,-46221,358080,165,-298,2483,9389
1491,2248,-1,0,-1,1,11,1,0,1,1,119,1494.000,-3.000,1127180,17356,-810,-4042,-549,-47,45,133220,-27868,80795,7,13051,2668,-46233,358189,167,-298,2483,9388
1491,2248,1,3,-3,0,17,3,1,2,1,119,1494.000,-3.000,1127180,17356,-810,-4042,-549,-47,45,133220,-27868,80795,7,13051,2668,-46233,358189,167,-298,2483,9388
1492,2249,-1,-3,0,-1,-7,-3,-1,0,1,119,1494.000,-2.000,1127180,17356,-810,-4042,-549,-47,45,133220,-27868,80795,7,13051,2668,-46233,358189,167,-298,2483,9388
1492,2249,-2,-6,-1,-3,7,-6,-4,-1,1,119,1494.000,-2.000,1127180,17356,-810,-4042,-549,-47,45,133220,-27868,80795,7,13051,2668,-46233,358189,167,-298,2483,9388
1513,2270,0,3,-1,0,17,2,1,0,1,121,1517.000,-4.000,1127202,17338,-834,-4038,-540,-54,47,134636,-27011,81785,7,13054,2663,-46240,358301,165,-298,2482,9388
1513,2270,-1,2,1,1,14,4,1,2,1,121,1517.000,-4.000,1127202,17338,-834,-4038,-540,-54,47,134636,-27011,81785,7,13054,2663,-46240,358301,165,-298,2482,9388
1515,2271,0,-3,0,-1,-10,-2,1,-1,1,121,1517.000,-2.000,1127202,17338,-834,-4038,-540,-54,47,134636,-27011,81785,7,13054,2663,-46240,358301,165,-298,2482,9388
1515,2271,1,-5,-2,-2,9,-3,-2,-2,1,121,1517.000,-2.000,1127202,17338,-834,-4038,-540,-54,47,134636,-27011,81785,7,13054,2663,-46240,358301,165,-298,2482,9388
1527,2284,1,3,-1,3,11,3,1,1,1,122,1528.000,-1.000,1127213,17360,-842,-4038,-538,-47,54,135333,-26574,82268,7,13056,2665,-46249,358358,165,-299,2482,9389
1527,2284,0,1,0,1,14,2,0,-1,1,122,1528.000,-1.000,1127213,17360,-842,-4038,-538,-47,54,135333,-26574,82268,7,13056,2665,-46249,358358,165,-299,2482,9389
1536,2292,-3,-5,0,1,-9,-3,-2,-1,1,123,1539.000,-3.000,1127224,17358,-806,-4016,-542,-42,48,136024,-26132,82745,7,13055,2664,-46252,358415,165,-298,2482,9388
1536,2292,-1,-6,-1,-1,6,-5,-2,-6,1,123,1539.000,-3.000,1127224,17358,-806,-4016,-542,-42,48,136024,-26132,82745,7,13055,2664,-46252,358415,165,-298,2482,9388
1558,2315,-2,2,0,0,11,3,0,2,1,125,1561.000,-3.000,1127247,17362,-820,-3990,-534,-47,49,137387,-25232,83674,7,13052,2662,-46256,358530,165,-297,2481,9387
1558,2315,-1,3,0,0,18,0,0,2,1,125,1561.000,-3.000,1127247,17362,-820,-3990,-534,-47,49,137387,-25232,83674,7,13052,2662,-46256,358530,165,-297,2481,9387
1560,2317,0,-5,1,-1,-13,-3,-2,3,1,125,1561.000,-1.000,1127247,17362,-820,-3990,-534,-47,49,137387,-25232,83674,7,13052,2662,-46256,358530,165,-297,2481,9387
1560,2317,-1,-3,-1,-3,6,-4,-2,-3,1,125,1561.000,-1.000,1127247,17362,-820,-3990,-534,-47,49,137387,-25232,83674,7,13052,2662,-46256,358530,165,-297,2481,9387
1573,2330,0,3,0,2,15,2,0,-1,1,126,1572.000,1.000,1127258,17390,-800,-3954,-536,-39,49,138058,-24775,84127,7,13046,2660,-46252,358586,166,-296,2480,9385
1573,2330,0,4,-2,-1,18,3,1,0,1,126,1572.000,1.000,1127258,17390,-800,-3954,-536,-39,49,138058,-24775,84127,7,13046,2660,-46252,358586,166,-296,2480,9385
1575,2331,-2,-4,2,0,-6,-3,0,1,1,126,1572.000,3.000,1127258,17390,-800,-3954,-536,-39,49,138058,-24775,84127,7,13046,2660,-46252,358586,166,-296,2480,9385
1575,2331,1,-6,0,-2,6,-5,-2,-6,1,126,1572.000,3.000,1127258,17390,-800,-3954,-536,-39,49,138058,-24775,84127,7,13046,2660,-46252,358586,166,-296,2480,9385
1587,2344,2,1,0,-1,10,4,3,4,1,127,1583.000,4.000,1127269,17334,-844,-3974,-532,-44,50,138724,-24312,84573,7,13043,2663,-46257,358638,165,-295,2480,9384
1587,2344,-1,3,1,2,11,2,-2,-1,1,127,1583.000,4.000,1127269,17334,-844,-3974,-532,-44,50,138724,-24312,84573,7,13043,2663,-46257,358638,165,-295,2480,9384
1596,2352,0,-4,1,1,-6,-6,1,-2,1,128,1595.000,1.000,1127280,17330,-846,-3962,-538,-38,53,139383,-23846,85011,7,13039,2665,-46262,358690,165,-294,2481,9383
1596,2352,-3,-3,1,-2,9,-5,1,-1,1,128,1595.000,1.000,1127280,17330,-846,-3962,-538,-38,53,139383,-23846,85011,7,13039,2665,-46262,358690,165,-294,2481,9383
1611,2367,-1,2,0,0,28,4,0,-1,1,129,1606.000,5.000,1127291,17302,-834,-4058,-531,-50,45,140036,-23373,85443,7,13044,2666,-46274,358739,165,-295,2481,9384
1611,2367,2,1,-1,0,16,2,-1,0,1,129,1606.000,5.000,1127291,17302,-834,-4058,-531,-50,45,140036,-23373,85443,7,13044,2666,-46274,358739,165,-295,2481,9384
1612,2369,0,-4,0,1,-5,-4,-4,-2,1,130,1617.000,-5.000,1127302,17320,-844,-4046,-529,-47,49,140684,-22897,85866,7,13048,2668,-46285,358792,165,-296,2481,9385
1612,2369,1,-3,-2,-1,13,-4,-2,-4,1,130,1617.000,-5.000,1127302,17320,-844,-4046,-529,-47,49,140684,-22897,85866,7,13048,2668,-46285,358792,165,-296,2481,9385
1633,2390,0,3,0,1,8,2,2,1,1,131,1628.000,5.000,1127313,17360,-854,-4010,-545,-40,43,141326,-22416,86284,7,13047,2669,-46293,358848,165,-296,2482,9385
1633,2390,1,1,-1,1,18,3,0,6,1,131,1628.000,5.000,1127313,17360,-854,-4010,-545,-40,43,141326,-22416,86284,7,13047,2669,-46293,358848,165,-296,2482,9385
1635,2392,-1,-3,-1,-3,-9,-5,-2,0,1,132,1639.000,-4.000,1127324,17346,-840,-4012,-543,-43,48,141962,-21931,86695,7,13047,2671,-46300,358903,165,-295,2482,9385
1635,2392,-2,-7,1,-3,4,-4,0,-4,1,132,1639.000,-4.000,1127324,17346,-840,-4012,-543,-43,48,141962,-21931,86695,7,13047,2671,-46300,358903,165,-295,2482,9385
1647,2404,-1,3,-1,1,11,3,0,1,1,133,1650.000,-3.000,1127336,17312,-824,-4046,-545,-45,43,142593,-21441,87099,7,13051,2670,-46310,358958,166,-296,2482,9386
1647,2404,2,3,-1,1,11,1,-1,2,1,133,1650.000,-3.000,1127336,17312,-824,-4046,-545,-45,43,142593,-21441,87099,7,13051,2670,-46310,358958,166,-296,2482,9386
1656,2412,1,-2,0,-2,-15,-5,0,1,1,134,1661.000,-5.000,1127347,17362,-780,-4058,-547,-49,44,143218,-20948,87496,7,13054,2665,-46315,359015,165,-297,2481,9387
1656,2412,-4,-6,-3,-3,10,-4,-4,-5,1,134,1661.000,-5.000,1127347,17362,-780,-4058,-547,-49,44,143218,-20948,87496,7,13054,2665,-46315,359015,165,-297,2481,9387
1671,2427,0,3,-1,0,17,2,1,0,1,135,1673.000,-2.000,1127358,17360,-834,-4036,-537,-38,43,143838,-20450,87886,7,13055,2666,-46322,359073,165,-297,2481,9387
1671,2427,-1,2,0,0,10,2,1,0,1,135,1673.000,-2.000,1127358,17360,-834,-4036,-537,-38,43,143838,-20450,87886,7,13055,2666,-46322,359073,165,-297,2481,9387
1672,2429,-1,-4,0,-1,-3,-5,-1,-1,1,135,1673.000,-1.000,1127358,17360,-834,-4036,-537,-38,43,143838,-20450,87886,7,13055,2666,-46322,359073,165,-297,2481,9387
1672,2429,3,-4,-1,-3,13,-4,-2,-4,1,135,1673.000,-1.000,1127358,17360,-834,-4036,-537,-38,43,143838,-20450,87886,7,13055,2666,-46322,359073,165,-297,2481,9387
1693,2450,0,1,0,0,7,1,-3,-3,1,137,1695.000,-2.000,1127380,17336,-796,-3974,-534,-54,44,145061,-19441,88645,7,13056,2665,-46331,359190,165,-296,2481,9386
1693,2450,-2,2,-3,2,19,4,1,0,1,137,1695.000,-2.000,1127380,17336,-796,-3974,-534,-54,44,145061,-19441,88645,7,13056,2665,-46331,359190,165,-296,2481,9386
1695,2451,-1,-4,1,0,-7,-6,1,0,1,137,1695.000,0.000,1127380,17336,-796,-3974,-534,-54,44,145061,-19441,88645,7,13056,2665,-46331,359190,165,-296,2481,9386
1695,2451,-1,-4,-1,-2,6,-3,-2,-1,1,137,1695.000,0.000,1127380,17336,-796,-3974,-534,-54,44,145061,-19441,88645,7,13056,2665,-46331,359190,165,-296,2481,9386
1707,2463,-1,3,-1,0,10,2,-1,-2,1,138,1706.000,1.000,1127391,17340,-810,-4058,-533,-43,43,145665,-18931,89014,7,13059,2664,-46338,359248,165,-297,2481,9387
1707,2463,-2,0,0,2,16,3,-2,2,1,138,1706.000,1.000,1127391,17340,-810,-4058,-533,-43,43,145665,-18931,89014,7,13059,2664,-46338,359248,165,-297,2481,9387
1716,2472,1,-7,0,0,-10,-4,-1,0,1,139,1717.000,-1.000,1127402,17358,-864,-4032,-539,-38,42,146263,-18417,89377,7,13060,2666,-46347,359307,165,-297,2482,9387
1716,2472,1,-2,-1,-3,12,-1,0,-2,1,139,1717.000,-1.000,1127402,17358,-864,-4032,-539,-38,42,146263,-18417,89377,7,13060,2666,-46347,359307,165,-297,2482,9387
1731,2487,3,3,-1,-1,17,4,3,0,1,140,1728.000,3.000,1127414,17322,-844,-3946,-536,-41,45,146857,-17900,89733,7,13054,2668,-46348,359366,166,-296,2482,9385
1731,2487,1,4,-2,0,19,3,-3,1,1,140,1728.000,3.000,1127414,17322,-844,-3946,-536,-41,45,146857,-17900,89733,7,13054,2668,-46348,359366,166,-296,2482,9385
1732,2489,0,-4,1,1,0,-5,-3,0,1,140,1728.000,4.000,1127414,17322,-844,-3946,-536,-41,45,146857,-17900,89733,7,13054,2668,-46348,359366,166,-296,2482,9385
1732,2489,-1,-1,0,-2,11,-3,-3,-3,1,140,1728.000,4.000,1127414,17322,-844,-3946,-536,-41,45,146857,-17900,89733,7,13054,2668,-46348,359366,166,-296,2482,9385
1752,2509,-1,4,0,-1,15,0,0,0,1,142,1751.000,1.000,1127436,17342,-804,-4034,-532,-45,41,148030,-16854,90426,7,13056,2667,-46360,359481,165,-296,2481,9386
1752,2509,0,5,-2,-1,23,3,2,2,1,142,1751.000,1.000,1127436,17342,-804,-4034,-532,-45,41,148030,-16854,90426,7,13056,2667,-46360,359481,165,-296,2481,9386
1761,2518,-2,-4,1,0,-7,-5,-1,-1,1,143,1762.000,-1.000,1127447,17346,-830,-3994,-540,-42,45,148609,-16326,90763,7,13054,2667,-46364,359539,165,-296,2481,9385
1761,2518,-2,-5,0,-3,9,-3,1,-1,1,143,1762.000,-1.000,1127447,17346,-830,-3994,-540,-42,45,148609,-16326,90763,7,13054,2667,-46364,359539,165,-296,2481,9385
1767,2524,0,1,0,1,16,1,-2,1,1,143,1762.000,5.000,1127447,17346,-830,-3994,-540,-42,45,148609,-16326,90763,7,13054,2667,-46364,359539,165,-296,2481,9385
1767,2524,-1,2,-1,-2,13,0,0,1,1,143,1762.000,5.000,1127447,17346,-830,-3994,-540,-42,45,148609,-16326,90763,7,13054,2667,-46364,359539,165,-296,2481,9385
1776,2533,1,-6,-2,-2,-5,-6,-1,-1,1,144,1773.000,3.000,1127458,17346,-836,-3972,-540,-43,43,149185,-15794,91094,7,13050,2668,-46367,359597,165,-295,2481,9384
1776,2533,-1,-3,-2,-1,15,-2,-1,-3,1,144,1773.000,3.000,1127458,17346,-836,-3972,-540,-43,43,149185,-15794,91094,7,13050,2668,-46367,359597,165,-295,2481,9384
1792,2548,0,1,0,0,13,2,0,1,1,146,1795.000,-3.000,1127480,17332,-866,-4018,-541,-39,51,150320,-14722,91737,7,13047,2675,-46387,359708,165,-294,2483,9384
1792,2548,2,4,0,1,18,5,0,2,1,146,1795.000,-3.000,1127480,17332,-866,-4018,-541,-39,51,150320,-14722,91737,7,13047,2675,-46387,359708,165,-294,2483,9384
1793,2550,-2,-5,0,0,-1,-4,-1,-1,1,146,1795.000,-2.000,1127480,17332,-866,-4018,-541,-39,51,150320,-14722,91737,7,13047,2675,-46387,359708,165,-294,2483,9384
1793,2550,2,-5,0,-2,16,-2,0,-7,1,146,1795.000,-2.000,1127480,17332,-866,-4018,-541,-39,51,150320,-14722,91737,7,13047,2675,-46387,359708,165,-294,2483,9384
1813,2570,0,2,1,-2,22,1,0,0,1,148,1817.000,-4.000,1127503,17388,-802,-3994,-543,-49,49,151441,-13638,92356,7,13038,2676,-46386,359816,166,-292,2482,9380
1813,2570,0,3,0,3,16,6,1,-1,1,148,1817.000,-4.000,1127503,17388,-802,-3994,-543,-49,49,151441,-13638,92356,7,13038,2676,-46386,359816,166,-292,2482,9380
1815,2572,-1,-5,1,-1,-2,-6,-3,1,1,148,1817.000,-2.000,1127503,17388,-802,-3994,-543,-49,49,151441,-13638,92356,7,13038,2676,-46386,359816,166,-292,2482,9380
1815,2572,0,-1,-1,-3,11,-2,-1,-2,1,148,1817.000,-2.000,1127503,17388,-802,-3994,-543,-49,49,151441,-13638,92356,7,13038,2676,-46386,359816,166,-292,2482,9380
1827,2584,1,2,-2,1,10,4,-2,3,1,149,1828.000,-1.000,1127514,17354,-840,-4032,-537,-41,48,151995,-13091,92656,7,13040,2677,-46395,359866,165,-292,2482,9381
1827,2584,-2,2,1,2,21,4,3,4,1,149,1828.000,-1.000,1127514,17354,-840,-4032,-537,-41,48,151995,-13091,92656,7,13040,2677,-46395,359866,165,-292,2482,9381
1836,2593,2,-7,1,-2,-4,-6,0,1,1,150,1840.000,-4.000,1127525,17334,-796,-4018,-545,-43,45,152545,-12542,92951,7,13041,2674,-46395,359918,165,-292,2481,9380
1836,2593,-5,-3,-2,-2,13,-3,0,-3,1,150,1840.000,-4.000,1127525,17334,-796,-4018,-545,-43,45,152545,-12542,92951,7,13041,2674,-46395,359918,165,-292,2481,9380
1851,2608,-1,3,0,0,17,2,1,1,1,151,1851.000,0.000,1127536,17366,-812,-4032,-537,-45,41,153091,-11988,93239,7,13042,2672,-46398,359970,165,-292,2481,9380
1851,2608,0,6,-1,0,17,5,-1,0,1,151,1851.000,0.000,1127536,17366,-812,-4032,-537,-45,41,153091,-11988,93239,7,13042,2672,-46398,359970,165,-292,2481,9380
1852,2609,0,-3,-1,0,-3,-3,-1,0,1,151,1851.000,1.000,1127536,17366,-812,-4032,-537,-45,41,153091,-11988,93239,7,13042,2672,-46398,359970,165,-292,2481,9380
1852,2609,1,-4,-2,0,16,0,-2,-3,1,151,1851.000,1.000,1127536,17366,-812,-4032,-537,-45,41,153091,-11988,93239,7,13042,2672,-46398,359970,165,-292,2481,9380
1873,2630,-1,1,-1,0,16,1,-1,-1,1,153,1873.000,0.000,1127558,17346,-842,-4042,-539,-43,50,154173,-10874,93799,7,13047,2671,-46410,360073,165,-293,2481,9381
1873,2630,1,2,0,1,15,3,0,1,1,153,1873.000,0.000,1127558,17346,-842,-4042,-539,-43,50,154173,-10874,93799,7,13047,2671,-46410,360073,165,-293,2481,9381
1875,2631,-2,-6,0,-3,-8,-9,0,-5,1,153,1873.000,2.000,1127558,17346,-842,-4042,-539,-43,50,154173,-10874,93799,7,13047,2671,-46410,360073,165,-293,2481,9381
1875,2631,-1,-1,-1,-3,13,-1,-2,-4,1,153,1873.000,2.000,1127558,17346,-842,-4042,-539,-43,50,154173,-10874,93799,7,13047,2671,-46410,360073,165,-293,2481,9381
1887,2644,1,2,0,1,10,3,2,-1,1,154,1884.000,3.000,1127569,17334,-788,-4090,-533,-38,50,154707,-10313,94069,7,13053,2668,-46415,360127,165,-294,2480,9382
1887,2644,1,4,0,1,16,3,1,2,1,154,1884.000,3.000,1127569,17334,-788,-4090,-533,-38,50,154707,-10313,94069,7,13053,2668,-46415,360127,165,-294,2480,9382
1896,2653,-3,-7,-1,-3,-7,-7,1,0,1,155,1895.000,1.000,1127581,17364,-808,-4028,-538,-38,47,155239,-9749,94335,7,13053,2667,-46419,360182,166,-294,2480,9382
1896,2653,-2,-2,-1,-2,15,0,0,-2,1,155,1895.000,1.000,1127581,17364,-808,-4028,-538,-38,47,155239,-9749,94335,7,13053,2667,-46419,360182,166,-294,2480,9382
1911,2668,-1,1,-1,0,8,1,1,5,1,156,1906.000,5.000,1127592,17350,-802,-4018,-546,-45,54,155764,-9188,94593,7,13053,2665,-46423,360237,166,-294,2479,9382
1911,2668,-1,2,-2,2,17,4,1,3,1,156,1906.000,5.000,1127592,17350,-802,-4018,-546,-45,54,155764,-9188,94593,7,13053,2665,-46423,360237,166,-294,2479,9382
1912,2669,1,-5,-1,-3,-4,-5,-2,-2,1,157,1917.000,-5.000,1127603,17392,-830,-4042,-539,-41,50,156285,-8624,94846,7,13055,2666,-46429,360291,165,-294,2479,9382
1912,2669,-2,1,-1,-2,19,-2,-1,-3,1,157,1917.000,-5.000,1127603,17392,-830,-4042,-539,-41,50,156285,-8624,94846,7,13055,2666,-46429,360291,165,-294,2479,9382
1933,2689,1,3,0,1,14,1,-2,-2,1,158,1928.000,5.000,1127614,17384,-816,-3978,-536,-46,47,156804,-8057,95093,7,13051,2665,-46433,360346,165,-293,2479,9381
1933,2689,0,5,-2,-2,21,4,-1,-1,1,158,1928.000,5.000,1127614,17384,-816,-3978,-536,-46,47,156804,-8057,95093,7,13051,2665,-46433,360346,165,-293,2479,9381
1935,2692,-1,-4,1,0,7,-6,-4,1,1,159,1939.000,-4.000,1127625,17342,-828,-4010,-540,-47,44,157320,-7488,95335,7,13051,2665,-46439,360399,165,-293,2479,9381
1935,2692,3,-1,0,-3,19,-1,1,-4,1,159,1939.000,-4.000,1127625,17342,-828,-4010,-540,-47,44,157320,-7488,95335,7,13051,2665,-46439,360399,165,-293,2479,9381
1956,2713,2,3,1,0,19,2,0,3,1,160,1950.000,6.000,1127636,17328,-786,-4020,-535,-41,38,157832,-6916,95571,7,13052,2661,-46440,360452,165,-293,2478,9381
1956,2713,-2,4,-1,1,17,5,1,3,1,160,1950.000,6.000,1127636,17328,-786,-4020,-535,-41,38,157832,-6916,95571,7,13052,2661,-46440,360452,165,-293,2478,9381
1957,2714,0,-8,0,0,-7,-5,-1,-2,1,161,1962.000,-5.000,1127647,17362,-842,-4030,-538,-42,39,158342,-6341,95803,7,13053,2661,-46447,360504,165,-293,2478,9381
1957,2714,1,-1,-2,-2,20,0,-1,-2,1,161,1962.000,-5.000,1127647,17362,-842,-4030,-538,-42,39,158342,-6341,95803,7,13053,2661,-46447,360504,165,-293,2478,9381
1971,2727,-1,3,-1,0,20,2,-1,-1,1,162,1973.000,-2.000,1127658,17332,-842,-3988,-536,-49,39,158849,-5765,96029,7,13051,2662,-46455,360556,165,-293,2478,9381
1971,2727,1,3,0,0,16,3,0,0,1,162,1973.000,-2.000,1127658,17332,-842,-3988,-536,-49,39,158849,-5765,96029,7,13051,2662,-46455,360556,165,-293,2478,9381
1972,2729,-2,-8,1,-3,7,-4,-1,0,1,162,1973.000,-1.000,1127658,17332,-842,-3988,-536,-49,39,158849,-5765,96029,7,13051,2662,-46455,360556,165,-293,2478,9381
1972,2729,-3,-1,-1,0,10,-1,1,-2,1,162,1973.000,-1.000,1127658,17332,-842,-3988,-536,-49,39,158849,-5765,96029,7,13051,2662,-46455,360556,165,-293,2478,9381
1993,2750,-2,1,-1,-1,10,2,0,-1,1,164,1995.000,-2.000,1127680,17360,-860,-3972,-542,-48,45,159857,-4606,96465,7,13048,2667,-46473,360665,165,-292,2479,9380
1993,2750,-1,3,-1,3,19,4,0,4,1,164,1995.000,-2.000,1127680,17360,-860,-3972,-542,-48,45,159857,-4606,96465,7,13048,2667,-46473,360665,165,-292,2479,9380
1995,2752,-4,-6,-2,0,-3,-8,0,-3,1,164,1995.000,0.000,1127680,17360,-860,-3972,-542,-48,45,159857,-4606,96465,7,13048,2667,-46473,360665,165,-292,2479,9380
1995,2752,0,1,-2,0,16,0,0,-2,1,164,1995.000,0.000,1127680,17360,-860,-3972,-542,-48,45,159857,-4606,96465,7,13048,2667,-46473,360665,165,-292,2479,9380
2016,2772,0,2,0,0,11,4,1,-1,1,166,2017.000,-1.000,1127702,17360,-790,-3970,-538,-44,48,160854,-3440,96880,7,13042,2665,-46478,360773,165,-290,2478,9378
2016,2772,0,6,1,2,17,2,1,-3,1,166,2017.000,-1.000,1127702,17360,-790,-3970,-538,-44,48,160854,-3440,96880,7,13042,2665,-46478,360773,165,-290,2478,9378
2017,2774,1,-7,-2,-2,-16,-8,0,-4,1,166,2017.000,0.000,1127702,17360,-790,-3970,-538,-44,48,160854,-3440,96880,7,13042,2665,-46478,360773,165,-290,2478,9378
2017,2774,-2,1,-2,-3,7,-1,-2,-2,1,166,2017.000,0.000,1127702,17360,-790,-3970,-538,-44,48,160854,-3440,96880,7,13042,2665,-46478,360773,165,-290,2478,9378
2038,2795,0,1,0,1,13,0,-1,4,1,168,2039.000,-1.000,1127724,17330,-802,-4016,-539,-42,51,161842,-2267,97276,7,13040,2661,-46480,360872,165,-290,2477,9377
2038,2795,0,2,-2,0,15,3,1,5,1,168,2039.000,-1.000,1127724,17330,-802,-4016,-539,-42,51,161842,-2267,97276,7,13040,2661,-46480,360872,165,-290,2477,9377
2040,2796,0,-5,1,-1,-11,-4,-3,-1,1,168,2039.000,1.000,1127724,17330,-802,-4016,-539,-42,51,161842,-2267,97276,7,13040,2661,-46480,360872,165,-290,2477,9377
2040,2796,-2,-2,0,-3,11,0,-1,-2,1,168,2039.000,1.000,1127724,17330,-802,-4016,-539,-42,51,161842,-2267,97276,7,13040,2661,-46480,360872,165,-290,2477,9377
2053,2810,-2,2,-2,-1,5,1,-1,-1,1,169,2050.000,3.000,1127735,17382,-806,-4028,-541,-38,50,162333,-1677,97466,7,13041,2660,-46482,360920,165,-290,2476,9377
2053,2810,1,4,0,2,14,4,1,0,1,169,2050.000,3.000,1127735,17382,-806,-4028,-541,-38,50,162333,-1677,97466,7,13041,2660,-46482,360920,165,-290,2476,9377
2055,2812,-2,-7,0,-2,-6,-8,-1,-3,1,169,2050.000,5.000,1127735,17382,-806,-4028,-541,-38,50,162333,-1677,97466,7,13041,2660,-46482,360920,165,-290,2476,9377
2055,2812,2,3,0,-1,13,0,0,-1,1,169,2050.000,5.000,1127735,17382,-806,-4028,-541,-38,50,162333,-1677,97466,7,13041,2660,-46482,360920,165,-290,2476,9377
2076,2833,-1,4,-1,-1,10,3,2,4,1,171,2072.000,4.000,1127757,17370,-812,-3988,-544,-43,48,163310,-492,97832,7,13041,2656,-46486,361008,165,-290,2475,9376
2076,2833,0,6,-1,3,11,3,0,2,1,171,2072.000,4.000,1127757,17370,-812,-3988,-544,-43,48,163310,-492,97832,7,13041,2656,-46486,361008,165,-290,2475,9376
2077,2834,1,-8,1,-2,-12,-8,-3,0,1,171,2072.000,5.000,1127757,17370,-812,-3988,-544,-43,48,163310,-492,97832,7,13041,2656,-46486,361008,165,-290,2475,9376
2077,2834,-1,1,1,0,16,1,0,-1,1,171,2072.000,5.000,1127757,17370,-812,-3988,-544,-43,48,163310,-492,97832,7,13041,2656,-46486,361008,165,-290,2475,9376
2090,2847,2,1,-1,1,20,1,2,0,1,173,2094.000,-4.000,1127779,17342,-850,-4054,-535,-48,43,164266,680,98173,7,13047,2662,-46509,361097,169,-290,2477,9377
2090,2847,-2,4,-1,1,16,3,1,2,1,173,2094.000,-4.000,1127779,17342,-850,-4054,-535,-48,43,164266,680,98173,7,13047,2662,-46509,361097,169,-290,2477,9377
2098,2855,-3,-7,0,-2,1,-7,-1,-2,1,173,2094.000,4.000,1127779,17342,-850,-4054,-535,-48,43,164266,680,98173,7,13047,2662,-46509,361097,169,-290,2477,9377
2098,2855,1,0,-3,-2,17,4,1,-2,1,173,2094.000,4.000,1127779,17342,-850,-4054,-535,-48,43,164266,680,98173,7,13047,2662,-46509,361097,169,-290,2477,9377
2113,2870,0,0,2,0,9,1,0,-2,1,175,2116.000,-3.000,1127801,17378,-808,-4058,-536,-45,44,165219,1865,98495,7,13053,2662,-46521,361200,165,-292,2477,9378
2113,2870,1,4,-1,-1,15,4,0,2,1,175,2116.000,-3.000,1127801,17378,-808,-4058,-536,-45,44,165219,1865,98495,7,13053,2662,-46521,361200,165,-292,2477,9378
2115,2872,0,-8,1,-2,-1,-8,-1,-4,1,175,2116.000,-1.000,1127801,17378,-808,-4058,-536,-45,44,165219,1865,98495,7,13053,2662,-46521,361200,165,-292,2477,9378
2115,2872,0,-1,-1,-1,23,2,0,-1,1,175,2116.000,-1.000,1127801,17378,-808,-4058,-536,-45,44,165219,1865,98495,7,13053,2662,-46521,361200,165,-292,2477,9378
2136,2892,-3,3,-2,2,11,3,1,1,1,177,2137.000,-1.000,1127823,17292,-812,-4038,-540,-47,41,166170,3060,98800,7,13059,2662,-46534,361306,165,-293,2477,9379
2136,2892,-2,2,0,-1,13,3,-1,1,1,177,2137.000,-1.000,1127823,17292,-812,-4038,-540,-47,41,166170,3060,98800,7,13059,2662,-46534,361306,165,-293,2477,9379
2137,2894,-1,-8,0,-2,-2,-9,-3,-5,1,177,2137.000,0.000,1127823,17292,-812,-4038,-540,-47,41,166170,3060,98800,7,13059,2662,-46534,361306,165,-293,2477,9379
2137,2894,-1,3,-2,-3,20,1,0,-3,1,177,2137.000,0.000,1127823,17292,-812,-4038,-540,-47,41,166170,3060,98800,7,13059,2662,-46534,361306,165,-293,2477,9379
2150,2906,-1,1,-1,0,16,3,1,-2,1,178,2148.000,2.000,1127834,17374,-856,-3964,-535,-48,44,166645,3660,98945,7,13054,2664,-46542,361360,165,-291,2478,9378
2150,2906,-2,4,0,1,11,4,2,1,1,178,2148.000,2.000,1127834,17374,-856,-3964,-535,-48,44,166645,3660,98945,7,13054,2664,-46542,361360,165,-291,2478,9378
2157,2914,2,-7,0,0,2,-9,-2,-1,1,179,2159.000,-2.000,1127845,17334,-794,-4056,-534,-43,38,167118,4262,99086,7,13058,2661,-46544,361415,165,-292,2477,9379
2157,2914,2,2,-1,-2,22,1,-3,3,1,179,2159.000,-2.000,1127845,17334,-794,-4056,-534,-43,38,167118,4262,99086,7,13058,2661,-46544,361415,165,-292,2477,9379
2173,2930,0,2,-1,1,14,2,-1,5,1,180,2170.000,3.000,1127856,17346,-838,-4014,-538,-41,44,167590,4864,99221,7,13058,2662,-46551,361469,165,-292,2477,9378
2173,2930,-5,5,0,3,13,5,1,4,1,180,2170.000,3.000,1127856,17346,-838,-4014,-538,-41,44,167590,4864,99221,7,13058,2662,-46551,361469,165,-292,2477,9378
2175,2931,-2,-8,0,-4,-3,-7,-1,-2,1,180,2170.000,5.000,1127856,17346,-838,-4014,-538,-41,44,167590,4864,99221,7,13058,2662,-46551,361469,165,-292,2477,9378
2175,2931,1,2,0,0,21,2,-1,-4,1,180,2170.000,5.000,1127856,17346,-838,-4014,-538,-41,44,167590,4864,99221,7,13058,2662,-46551,361469,165,-292,2477,9378
2196,2953,2,3,-1,0,5,0,1,-1,1,182,2192.000,4.000,1127878,17396,-792,-3968,-532,-37,44,168532,6073,99478,7,13049,2657,-46558,361578,165,-290,2476,9377
2196,2953,4,5,-2,1,15,6,-1,4,1,182,2192.000,4.000,1127878,17396,-792,-3968,-532,-37,44,168532,6073,99478,7,13049,2657,-46558,361578,165,-290,2476,9377
2197,2954,-3,-9,2,-1,5,-8,-2,-1,1,182,2192.000,5.000,1127878,17396,-792,-3968,-532,-37,44,168532,6073,99478,7,13049,2657,-46558,361578,165,-290,2476,9377
2197,2954,1,1,-3,0,21,3,0,1,1,182,2192.000,5.000,1127878,17396,-792,-3968,-532,-37,44,168532,6073,99478,7,13049,2657,-46558,361578,165,-290,2476,9377
2210,2967,0,1,-3,0,15,1,-1,-1,1,184,2214.000,-4.000,1127900,17360,-858,-3990,-548,-35,48,169471,7286,99717,7,13042,2662,-46581,361682,167,-288,2477,9377
2210,2967,1,4,0,2,11,5,2,-2,1,184,2214.000,-4.000,1127900,17360,-858,-3990,-548,-35,48,169471,7286,99717,7,13042,2662,-46581,361682,167,-288,2477,9377
2217,2973,-2,-6,-1,-2,4,-9,0,-5,1,184,2214.000,3.000,1127900,17360,-858,-3990,-548,-35,48,169471,7286,99717,7,13042,2662,-46581,361682,167,-288,2477,9377
2217,2973,0,3,-1,-2,25,3,0,-4,1,184,2214.000,3.000,1127900,17360,-858,-3990,-548,-35,48,169471,7286,99717,7,13042,2662,-46581,361682,167,-288,2477,9377
2233,2990,1,3,1,2,16,1,0,-1,1,186,2236.000,-3.000,1127922,17340,-808,-3990,-532,-45,53,170410,8503,99936,7,13046,2660,-46587,361791,166,-289,2476,9377
2233,2990,1,3,1,3,14,3,0,4,1,186,2236.000,-3.000,1127922,17340,-808,-3990,-532,-45,53,170410,8503,99936,7,13046,2660,-46587,361791,166,-289,2476,9377
2235,2991,-3,-9,-1,-2,0,-5,-4,-1,1,186,2236.000,-1.000,1127922,17340,-808,-3990,-532,-45,53,170410,8503,99936,7,13046,2660,-46587,361791,166,-289,2476,9377
2235,2991,0,3,-1,-2,25,3,2,-3,1,186,2236.000,-1.000,1127922,17340,-808,-3990,-532,-45,53,170410,8503,99936,7,13046,2660,-46587,361791,166,-289,2476,9377
2263,3020,-1,2,1,0,8,1,-1,0,1,188,2258.000,5.000,1127944,17318,-880,-3994,-538,-49,46,171351,9730,100137,7,13043,2665,-46608,361898,166,-288,2477,9377
2263,3020,-2,4,-2,1,13,4,1,4,1,188,2258.000,5.000,1127944,17318,-880,-3994,-538,-49,46,171351,9730,100137,7,13043,2665,-46608,361898,166,-288,2477,9377
2265,3022,-2,-8,0,-1,3,-8,0,-1,1,189,2269.000,-4.000,1127955,17306,-850,-4036,-540,-49,45,171824,10347,100231,7,13047,2667,-46619,361953,166,-289,2478,9377
2265,3022,1,3,0,0,21,2,1,-2,1,189,2269.000,-4.000,1127955,17306,-850,-4036,-540,-49,45,171824,10347,100231,7,13047,2667,-46619,361953,166,-289,2478,9377
2270,3027,0,2,1,0,10,3,0,2,1,189,2269.000,1.000,1127955,17306,-850,-4036,-540,-49,45,171824,10347,100231,7,13047,2667,-46619,361953,166,-289,2478,9377
2270,3027,-2,4,1,1,13,5,1,1,1,189,2269.000,1.000,1127955,17306,-850,-4036,-540,-49,45,171824,10347,100231,7,13047,2667,-46619,361953,166,-289,2478,9377
2277,3034,0,-9,-3,-2,-3,-8,-2,3,1,190,2280.000,-3.000,1127966,17348,-818,-4004,-542,-44,47,172300,10970,100320,7,13046,2666,-46623,362011,165,-288,2477,9377
2277,3034,0,3,-2,-1,19,3,-1,-3,1,190,2280.000,-3.000,1127966,17348,-818,-4004,-542,-44,47,172300,10970,100320,7,13046,2666,-46623,362011,165,-288,2477,9377
2293,3050,2,3,-1,0,10,0,0,-1,1,191,2292.000,1.000,1127977,17362,-844,-4048,-535,-49,42,172777,11595,100404,7,13049,2667,-46632,362068,165,-289,2478,9378
2293,3050,1,3,2,4,13,4,1,0,1,191,2292.000,1.000,1127977,17362,-844,-4048,-535,-49,42,172777,11595,100404,7,13049,2667,-46632,362068,165,-289,2478,9378
2295,3051,-3,-6,0,-2,5,-4,0,-2,1,191,2292.000,3.000,1127977,17362,-844,-4048,-535,-49,42,172777,11595,100404,7,13049,2667,-46632,362068,165,-289,2478,9378
2295,3051,-1,2,1,1,20,2,1,0,1,191,2292.000,3.000,1127977,17362,-844,-4048,-535,-49,42,172777,11595,100404,7,13049,2667,-46632,362068,165,-289,2478,9378
2316,3073,-1,2,-1,1,10,4,0,1,1,193,2314.000,2.000,1127999,17374,-836,-3914,-541,-47,42,173732,12846,100559,7,13037,2667,-46641,362183,165,-286,2477,9375
2316,3073,-1,4,0,0,11,2,-1,2,1,193,2314.000,2.000,1127999,17374,-836,-3914,-541,-47,42,173732,12846,100559,7,13037,2667,-46641,362183,165,-286,2477,9375
2317,3074,0,-7,1,-3,6,-10,-2,-4,1,193,2314.000,3.000,1127999,17374,-836,-3914,-541,-47,42,173732,12846,100559,7,13037,2667,-46641,362183,165,-286,2477,9375
2317,3074,3,3,1,0,22,1,2,1,1,193,2314.000,3.000,1127999,17374,-836,-3914,-541,-47,42,173732,12846,100559,7,13037,2667,-46641,362183,165,-286,2477,9375
2330,3087,-1,2,1,-1,23,4,2,1,1,194,2325.000,5.000,1128010,17310,-848,-4026,-541,-42,50,174210,13473,100628,7,13039,2669,-46653,362236,165,-286,2478,9376
2330,3087,0,4,-1,3,10,5,-1,5,1,194,2325.000,5.000,1128010,17310,-848,-4026,-541,-42,50,174210,13473,100628,7,13039,2669,-46653,362236,165,-286,2478,9376
2337,3094,1,-8,-2,-2,5,-9,-1,-1,1,195,2336.000,1.000,1128021,17352,-834,-4026,-532,-44,46,174689,14100,100691,7,13040,2670,-46659,362292,165,-286,2478,9376
2337,3094,1,3,0,-1,24,2,-2,-2,1,195,2336.000,1.000,1128021,17352,-834,-4026,-532,-44,46,174689,14100,100691,7,13040,2670,-46659,362292,165,-286,2478,9376
2353,3110,-3,3,-2,0,11,2,-1,-3,1,197,2358.000,-5.000,1128044,17336,-800,-4010,-538,-45,46,175649,15357,100804,7,13041,2668,-46667,362403,165,-286,2477,9375
2353,3110,1,5,0,1,13,7,-2,2,1,197,2358.000,-5.000,1128044,17336,-800,-4010,-538,-45,46,175649,15357,100804,7,13041,2668,-46667,362403,165,-286,2477,9375
2355,3112,-1,-5,1,-1,4,-7,-1,-3,1,197,2358.000,-3.000,1128044,17336,-800,-4010,-538,-45,46,175649,15357,100804,7,13041,2668,-46667,362403,165,-286,2477,9375
2355,3112,-2,2,-1,2,14,0,1,-6,1,197,2358.000,-3.000,1128044,17336,-800,-4010,-538,-45,46,175649,15357,100804,7,13041,2668,-46667,362403,165,-286,2477,9375
2375,3133,2,3,0,1,13,2,1,0,1,198,2370.000,5.000,1128055,17356,-832,-4060,-547,-48,51,176130,15986,100853,7,13045,2669,-46676,362459,165,-287,2477,9376
2376,3133,-2,1,-3,0,11,2,2,2,1,199,2381.000,-5.000,1128066,17402,-766,-4018,-539,-46,49,176613,16616,100896,7,13045,2664,-46671,362517,165,-287,2476,9375
2382,3139,0,-9,1,-2,4,-8,-1,1,1,199,2381.000,1.000,1128066,17402,-766,-4018,-539,-46,49,176613,16616,100896,7,13045,2664,-46671,362517,165,-287,2476,9375
2382,3139,0,0,-2,-2,19,3,1,3,1,199,2381.000,1.000,1128066,17402,-766,-4018,-539,-46,49,176613,16616,100896,7,13045,2664,-46671,362517,165,-287,2476,9375
2390,3147,2,5,-2,1,8,3,-2,4,1,200,2392.000,-2.000,1128077,17392,-814,-3934,-543,-44,48,177097,17246,100935,7,13037,2663,-46676,362573,165,-285,2475,9374
2390,3147,2,5,0,-1,8,3,-1,1,1,200,2392.000,-2.000,1128077,17392,-814,-3934,-543,-44,48,177097,17246,100935,7,13037,2663,-46676,362573,165,-285,2475,9374
2397,3153,0,-6,0,-3,5,-8,-2,-4,1,200,2392.000,5.000,1128077,17392,-814,-3934,-543,-44,48,177097,17246,100935,7,13037,2663,-46676,362573,165,-285,2475,9374
2397,3153,1,5,0,0,19,3,-1,-3,1,200,2392.000,5.000,1128077,17392,-814,-3934,-543,-44,48,177097,17246,100935,7,13037,2663,-46676,362573,165,-285,2475,9374
2414,3171,-1,0,-2,-1,9,-1,1,-3,1,202,2414.000,0.000,1128099,17380,-874,-4010,-541,-49,48,178070,18509,100995,7,13035,2667,-46700,362678,165,-284,2476,9374
2414,3171,1,5,-1,3,5,3,0,2,1,202,2414.000,0.000,1128099,17380,-874,-4010,-541,-49,48,178070,18509,100995,7,13035,2667,-46700,362678,165,-284,2476,9374
2415,3172,-1,-10,0,-2,4,-7,0,0,1,202,2414.000,1.000,1128099,17380,-874,-4010,-541,-49,48,178070,18509,100995,7,13035,2667,-46700,362678,165,-284,2476,9374
2416,3172,0,3,1,1,16,2,0,1,1,202,2414.000,2.000,1128099,17380,-874,-4010,-541,-49,48,178070,18509,100995,7,13035,2667,-46700,362678,165,-284,2476,9374
2436,3192,-3,2,0,0,3,3,1,3,1,204,2436.000,0.000,1128122,17330,-846,-4094,-544,-39,51,179049,19773,101033,7,13042,2671,-46723,362787,165,-285,2477,9376
2436,3192,0,3,-1,2,13,5,1,4,1,204,2436.000,0.000,1128122,17330,-846,-4094,-544,-39,51,179049,19773,101033,7,13042,2671,-46723,362787,165,-285,2477,9376
2438,3194,-1,-9,0,-4,6,-9,-2,-3,1,204,2436.000,2.000,1128122,17330,-846,-4094,-544,-39,51,179049,19773,101033,7,13042,2671,-46723,362787,165,-285,2477,9376
2438,3194,-1,0,-1,0,16,3,-1,0,1,204,2436.000,2.000,1128122,17330,-846,-4094,-544,-39,51,179049,19773,101033,7,13042,2671,-46723,362787,165,-285,2477,9376
2449,3206,0,2,-2,1,10,2,-1,1,1,205,2448.000,1.000,1128133,17324,-806,-4024,-537,-44,54,179541,20406,101043,7,13043,2670,-46726,362844,165,-286,2477,9376
2449,3206,4,4,0,3,2,1,0,2,1,205,2448.000,1.000,1128133,17324,-806,-4024,-537,-44,54,179541,20406,101043,7,13043,2670,-46726,362844,165,-286,2477,9376
2458,3215,-3,-8,-2,-4,4,-6,-2,-6,1,206,2459.000,-1.000,1128144,17354,-848,-4000,-540,-42,47,-179963,21039,101048,7,13042,2672,-46734,362901,165,-285,2477,9376
2458,3215,-4,3,1,-1,20,3,1,0,1,206,2459.000,-1.000,1128144,17354,-848,-4000,-540,-42,47,-179963,21039,101048,7,13042,2672,-46734,362901,165,-285,2477,9376
2473,3230,1,0,1,2,8,2,0,0,1,207,2470.000,3.000,1128155,17310,-830,-4092,-542,-47,50,-179462,21677,101047,7,13050,2672,-46743,362959,165,-287,2478,9377
2473,3230,-1,2,0,1,9,1,1,1,1,207,2470.000,3.000,1128155,17310,-830,-4092,-542,-47,50,-179462,21677,101047,7,13050,2672,-46743,362959,165,-287,2478,9377
2475,3232,2,-8,0,-2,6,-8,-1,-4,1,207,2470.000,5.000,1128155,17310,-830,-4092,-542,-47,50,-179462,21677,101047,7,13050,2672,-46743,362959,165,-287,2478,9377
2475,3232,1,4,-2,-1,21,3,-1,-2,1,207,2470.000,5.000,1128155,17310,-830,-4092,-542,-47,50,-179462,21677,101047,7,13050,2672,-46743,362959,165,-287,2478,9377
2496,3252,-1,3,-1,0,11,2,0,0,1,209,2492.000,4.000,1128178,17380,-828,-3962,-536,-50,43,-178451,22954,101026,7,13047,2673,-46754,363079,166,-286,2477,9376
2496,3252,1,2,0,3,7,3,2,2,1,209,2492.000,4.000,1128178,17380,-828,-3962,-536,-50,43,-178451,22954,101026,7,13047,2673,-46754,363079,166,-286,2477,9376
2497,3254,-3,-9,0,-3,7,-7,-4,-5,1,209,2492.000,5.000,1128178,17380,-828,-3962,-536,-50,43,-178451,22954,101026,7,13047,2673,-46754,363079,166,-286,2477,9376
2497,3254,-3,3,1,-2,19,4,0,-1,1,209,2492.000,5.000,1128178,17380,-828,-3962,-536,-50,43,-178451,22954,101026,7,13047,2673,-46754,363079,166,-286,2477,9376
2509,3267,-2,1,-1,1,17,3,1,2,1,210,2504.000,5.000,1128189,17388,-864,-3958,-539,-49,48,-177942,23593,101007,7,13042,2676,-46763,363139,165,-284,2478,9375
2510,3267,0,2,0,0,7,2,1,2,1,211,2515.000,-5.000,1128200,17336,-826,-3986,-542,-53,52,-177429,24232,100982,7,13041,2676,-46767,363195,165,-284,2478,9375
2518,3275,-2,-8,1,-2,5,-9,0,-3,1,211,2515.000,3.000,1128200,17336,-826,-3986,-542,-53,52,-177429,24232,100982,7,13041,2676,-46767,363195,165,-284,2478,9375
2518,3275,3,3,-1,0,24,4,1,-3,1,211,2515.000,3.000,1128200,17336,-826,-3986,-542,-53,52,-177429,24232,100982,7,13041,2676,-46767,363195,165,-284,2478,9375
2533,3289,0,1,-1,1,20,1,0,1,1,213,2537.000,-4.000,1128223,17360,-810,-4004,-539,-42,45,-176396,25509,100911,7,13048,2672,-46772,363311,166,-285,2476,9375
2533,3289,-1,2,0,2,7,3,-1,4,1,213,2537.000,-4.000,1128223,17360,-810,-4004,-539,-42,45,-176396,25509,100911,7,13048,2672,-46772,363311,166,-285,2476,9375
2541,3297,-1,-8,0,-1,9,-7,-4,-2,1,213,2537.000,4.000,1128223,17360,-810,-4004,-539,-42,45,-176396,25509,100911,7,13048,2672,-46772,363311,166,-285,2476,9375
2541,3297,-3,4,1,-1,24,3,0,-1,1,213,2537.000,4.000,1128223,17360,-810,-4004,-539,-42,45,-176396,25509,100911,7,13048,2672,-46772,363311,166,-285,2476,9375
2556,3312,1,2,0,-1,11,2,1,1,1,215,2560.000,-4.000,1128245,17326,-842,-4048,-536,-45,50,-175347,26786,100814,7,13053,2672,-46784,363428,165,-286,2476,9376
2556,3312,0,5,0,0,11,3,1,1,1,215,2560.000,-4.000,1128245,17326,-842,-4048,-536,-45,50,-175347,26786,100814,7,13053,2672,-46784,363428,165,-286,2476,9376
2557,3314,1,-8,-2,-1,6,-10,-2,-3,1,215,2560.000,-3.000,1128245,17326,-842,-4048,-536,-45,50,-175347,26786,100814,7,13053,2672,-46784,363428,165,-286,2476,9376
2557,3314,2,2,-1,1,19,4,2,0,1,215,2560.000,-3.000,1128245,17326,-842,-4048,-536,-45,50,-175347,26786,100814,7,13053,2672,-46784,363428,165,-286,2476,9376
2569,3326,-1,4,0,1,13,2,0,1,1,216,2571.000,-2.000,1128256,17314,-864,-4004,-528,-43,52,-174818,27424,100754,7,13052,2676,-46793,363488,165,-285,2477,9376
2569,3326,-2,2,0,3,9,0,1,3,1,216,2571.000,-2.000,1128256,17314,-864,-4004,-528,-43,52,-174818,27424,100754,7,13052,2676,-46793,363488,165,-285,2477,9376
2578,3335,-2,-7,-1,-2,6,-5,-1,-3,1,217,2582.000,-4.000,1128267,17336,-828,-3930,-532,-43,52,-174284,28062,100688,7,13045,2677,-46797,363548,165,-284,2477,9374
2578,3335,1,4,-3,0,19,5,-1,1,1,217,2582.000,-4.000,1128267,17336,-828,-3930,-532,-43,52,-174284,28062,100688,7,13045,2677,-46797,363548,165,-284,2477,9374
2594,3350,2,1,1,-1,16,2,1,2,1,218,2593.000,1.000,1128279,17376,-876,-3974,-539,-40,50,-173746,28700,100615,7,13041,2681,-46809,363606,166,-283,2477,9374
2594,3350,2,3,0,2,5,3,1,0,1,218,2593.000,1.000,1128279,17376,-876,-3974,-539,-40,50,-173746,28700,100615,7,13041,2681,-46809,363606,166,-283,2477,9374
2595,3352,1,-7,-2,0,9,-9,0,-4,1,218,2593.000,2.000,1128279,17376,-876,-3974,-539,-40,50,-173746,28700,100615,7,13041,2681,-46809,363606,166,-283,2477,9374
2595,3352,0,3,-1,1,23,2,2,-2,1,218,2593.000,2.000,1128279,17376,-876,-3974,-539,-40,50,-173746,28700,100615,7,13041,2681,-46809,363606,166,-283,2477,9374
2616,3372,0,2,-1,-1,11,0,0,3,1,220,2617.000,-1.000,1128301,17314,-822,-4006,-532,-46,51,-172656,29974,100447,7,13047,2681,-46822,363720,165,-284,2478,9375
2616,3372,-1,1,0,0,1,1,-1,2,1,220,2617.000,-1.000,1128301,17314,-822,-4006,-532,-46,51,-172656,29974,100447,7,13047,2681,-46822,363720,165,-284,2478,9375
2617,3374,-1,-8,1,-4,9,-8,-2,-2,1,220,2617.000,0.000,1128301,17314,-822,-4006,-532,-46,51,-172656,29974,100447,7,13047,2681,-46822,363720,165,-284,2478,9375
2617,3374,0,5,-2,-3,16,5,0,0,1,220,2617.000,0.000,1128301,17314,-822,-4006,-532,-46,51,-172656,29974,100447,7,13047,2681,-46822,363720,165,-284,2478,9375
2629,3386,-1,1,1,0,13,0,-1,0,1,221,2627.000,2.000,1128312,17366,-806,-3958,-535,-46,54,-172104,30611,100352,7,13042,2680,-46821,363779,165,-283,2477,9373
2629,3386,1,3,0,0,5,2,0,4,1,221,2627.000,2.000,1128312,17366,-806,-3958,-535,-46,54,-172104,30611,100352,7,13042,2680,-46821,363779,165,-283,2477,9373
2638,3395,1,-5,-1,-4,7,-7,-2,-4,1,222,2638.000,0.000,1128324,17354,-864,-3962,-540,-40,58,-171547,31246,100249,7,13038,2684,-46832,363836,166,-282,2477,9373
2638,3395,0,4,-1,2,12,3,0,1,1,222,2638.000,0.000,1128324,17354,-864,-3962,-540,-40,58,-171547,31246,100249,7,13038,2684,-46832,363836,166,-282,2477,9373
2653,3410,-2,2,0,2,15,4,-1,0,1,223,2650.000,3.000,1128335,17316,-850,-3976,-530,-42,49,-170984,31881,100137,7,13035,2686,-46840,363890,165,-281,2477,9372
2653,3410,0,0,0,1,2,0,0,3,1,223,2650.000,3.000,1128335,17316,-850,-3976,-530,-42,49,-170984,31881,100137,7,13035,2686,-46840,363890,165,-281,2477,9372
2655,3411,-1,-8,-1,-6,8,-8,-4,-3,1,223,2650.000,5.000,1128335,17316,-850,-3976,-530,-42,49,-170984,31881,100137,7,13035,2686,-46840,363890,165,-281,2477,9372
2655,3411,0,3,-1,-1,15,2,1,0,1,223,2650.000,5.000,1128335,17316,-850,-3976,-530,-42,49,-170984,31881,100137,7,13035,2686,-46840,363890,165,-281,2477,9372
2676,3432,0,1,-1,1,12,3,-1,-2,1,225,2672.000,4.000,1128357,17398,-864,-4006,-540,-43,52,-169842,33150,99891,7,13030,2691,-46860,363997,165,-279,2478,9372
2676,3432,-2,0,0,1,2,0,1,-3,1,225,2672.000,4.000,1128357,17398,-864,-4006,-540,-43,52,-169842,33150,99891,7,13030,2691,-46860,363997,165,-279,2478,9372
2677,3434,1,-9,2,-1,7,-6,0,-6,1,225,2672.000,5.000,1128357,17398,-864,-4006,-540,-43,52,-169842,33150,99891,7,13030,2691,-46860,363997,165,-279,2478,9372
2677,3434,2,2,-1,-1,18,4,2,1,1,225,2672.000,5.000,1128357,17398,-864,-4006,-540,-43,52,-169842,33150,99891,7,13030,2691,-46860,363997,165,-279,2478,9372
2689,3446,0,3,-1,0,11,0,-1,3,1,227,2694.000,-5.000,1128380,17316,-826,-4026,-531,-42,48,-168685,34406,99613,7,13031,2692,-46872,364097,165,-279,2478,9372
2689,3446,0,0,1,0,-3,0,2,6,1,227,2694.000,-5.000,1128380,17316,-826,-4026,-531,-42,48,-168685,34406,99613,7,13031,2692,-46872,364097,165,-279,2478,9372
2698,3455,-1,-9,1,-3,8,-8,-3,-5,1,227,2694.000,4.000,1128380,17316,-826,-4026,-531,-42,48,-168685,34406,99613,7,13031,2692,-46872,364097,165,-279,2478,9372
2698,3455,2,5,0,0,15,2,1,0,1,227,2694.000,4.000,1128380,17316,-826,-4026,-531,-42,48,-168685,34406,99613,7,13031,2692,-46872,364097,165,-279,2478,9372
2713,3470,0,1,0,1,11,3,1,-1,1,229,2716.000,-3.000,1128402,17330,-846,-4056,-533,-43,46,-167500,35659,99298,7,13038,2690,-46884,364203,165,-281,2478,9373
2713,3470,0,1,2,0,-1,0,-1,1,1,229,2716.000,-3.000,1128402,17330,-846,-4056,-533,-43,46,-167500,35659,99298,7,13038,2690,-46884,364203,165,-281,2478,9373
2715,3472,0,-8,0,-4,6,-5,-1,-2,1,229,2716.000,-1.000,1128402,17330,-846,-4056,-533,-43,46,-167500,35659,99298,7,13038,2690,-46884,364203,165,-281,2478,9373
2715,3472,1,3,0,0,7,3,0,2,1,229,2716.000,-1.000,1128402,17330,-846,-4056,-533,-43,46,-167500,35659,99298,7,13038,2690,-46884,364203,165,-281,2478,9373
2736,3492,-2,3,0,1,11,2,-4,2,1,231,2739.000,-3.000,1128424,17362,-816,-4054,-537,-38,47,-166288,36906,98947,7,13044,2688,-46891,364317,165,-282,2477,9374
2736,3492,0,2,0,0,-4,0,-1,3,1,231,2739.000,-3.000,1128424,17362,-816,-4054,-537,-38,47,-166288,36906,98947,7,13044,2688,-46891,364317,165,-282,2477,9374
2737,3494,0,-7,-1,-2,9,-7,0,-4,1,231,2739.000,-2.000,1128424,17362,-816,-4054,-537,-38,47,-166288,36906,98947,7,13044,2688,-46891,364317,165,-282,2477,9374
2737,3494,-1,4,0,1,11,2,-1,-1,1,231,2739.000,-2.000,1128424,17362,-816,-4054,-537,-38,47,-166288,36906,98947,7,13044,2688,-46891,364317,165,-282,2477,9374
2750,3506,0,2,0,-1,11,1,2,-1,1,232,2750.000,0.000,1128435,17344,-786,-4052,-542,-37,45,-165671,37528,98757,7,13047,2683,-46892,364375,165,-283,2477,9374
2750,3506,-3,-1,-1,1,-4,0,-3,-1,1,232,2750.000,0.000,1128435,17344,-786,-4052,-542,-37,45,-165671,37528,98757,7,13047,2683,-46892,364375,165,-283,2477,9374
2758,3516,-2,-8,0,-2,9,-7,1,-5,1,233,2761.000,-3.000,1128446,17350,-830,-4058,-538,-46,52,-165045,38148,98557,7,13050,2684,-46898,364435,165,-283,2477,9374
2758,3516,1,4,-1,0,11,4,0,-2,1,233,2761.000,-3.000,1128446,17350,-830,-4058,-538,-46,52,-165045,38148,98557,7,13050,2684,-46898,364435,165,-283,2477,9374
2773,3530,0,1,-1,0,7,2,-1,-2,1,234,2772.000,1.000,1128457,17394,-824,-3956,-526,-43,44,-164409,38767,98345,7,13045,2683,-46901,364495,165,-282,2476,9373
2773,3530,2,-1,2,2,-4,-2,0,0,1,234,2772.000,1.000,1128457,17394,-824,-3956,-526,-43,44,-164409,38767,98345,7,13045,2683,-46901,364495,165,-282,2476,9373
2848,3531,-1,-6,-2,-4,7,-7,-1,-2,1,241,2850.000,-2.000,1128535,17326,-832,-3946,-537,-43,45,-159700,43052,96552,7,13027,2688,-46953,364897,165,-277,2476,9371
2848,3531,-3,2,1,1,14,1,1,-2,1,241,2850.000,-2.000,1128535,17326,-832,-3946,-537,-43,45,-159700,43052,96552,7,13027,2688,-46953,364897,165,-277,2476,9371
2848,3552,1,3,-1,-3,6,1,2,0,1,241,2850.000,-2.000,1128535,17326,-832,-3946,-537,-43,45,-159700,43052,96552,7,13027,2688,-46953,364897,165,-277,2476,9371
2848,3552,-1,-2,0,0,-3,0,0,-1,1,241,2850.000,-2.000,1128535,17326,-832,-3946,-537,-43,45,-159700,43052,96552,7,13027,2688,-46953,364897,165,-277,2476,9371
2848,3554,-2,-8,-2,-1,8,-7,-5,-2,1,241,2850.000,-2.000,1128535,17326,-832,-3946,-537,-43,45,-159700,43052,96552,7,13027,2688,-46953,364897,165,-277,2476,9371
2848,3554,-2,4,-1,0,13,1,0,-2,1,241,2850.000,-2.000,1128535,17326,-832,-3946,-537,-43,45,-159700,43052,96552,7,13027,2688,-46953,364897,165,-277,2476,9371
2848,3566,0,3,-1,2,12,2,1,1,1,241,2850.000,-2.000,1128535,17326,-832,-3946,-537,-43,45,-159700,43052,96552,7,13027,2688,-46953,364897,165,-277,2476,9371
2848,3566,1,-3,-1,1,-9,-3,2,3,1,241,2850.000,-2.000,1128535,17326,-832,-3946,-537,-43,45,-159700,43052,96552,7,13027,2688,-46953,364897,165,-277,2476,9371
2848,3575,0,-6,-1,-2,5,-6,0,-1,1,241,2850.000,-2.000,1128535,17326,-832,-3946,-537,-43,45,-159700,43052,96552,7,13027,2688,-46953,364897,165,-277,2476,9371
2848,3575,2,0,0,-1,15,2,1,5,1,241,2850.000,-2.000,1128535,17326,-832,-3946,-537,-43,45,-159700,43052,96552,7,13027,2688,-46953,364897,165,-277,2476,9371
2848,3590,-1,1,1,1,8,2,0,1,1,241,2850.000,-2.000,1128535,17326,-832,-3946,-537,-43,45,-159700,43052,96552,7,13027,2688,-46953,364897,165,-277,2476,9371
2848,3590,1,-2,-1,-1,4,-2,0,0,1,241,2850.000,-2.000,1128535,17326,-832,-3946,-537,-43,45,-159700,43052,96552,7,13027,2688,-46953,364897,165,-277,2476,9371
2848,3592,-1,-5,-1,-2,6,-7,0,-2,1,241,2850.000,-2.000,1128535,17326,-832,-3946,-537,-43,45,-159700,43052,96552,7,13027,2688,-46953,364897,165,-277,2476,9371
2848,3592,-1,4,-2,0,13,3,1,2,1,241,2850.000,-2.000,1128535,17326,-832,-3946,-537,-43,45,-159700,43052,96552,7,13027,2688,-46953,364897,165,-277,2476,9371
2856,3612,-2,0,0,1,11,2,1,2,1,242,2861.000,-5.000,1128547,17376,-832,-3964,-542,-45,45,-158984,43655,96246,7,13023,2688,-46957,364950,166,-276,2476,9370
2856,3612,0,-2,1,-1,-5,-1,-1,3,1,242,2861.000,-5.000,1128547,17376,-832,-3964,-542,-45,45,-158984,43655,96246,7,13023,2688,-46957,364950,166,-276,2476,9370
2857,3614,-1,-6,1,-3,7,-2,-2,-9,1,242,2861.000,-4.000,1128547,17376,-832,-3964,-542,-45,45,-158984,43655,96246,7,13023,2688,-46957,364950,166,-276,2476,9370
2857,3614,0,2,0,0,18,4,0,0,1,242,2861.000,-4.000,1128547,17376,-832,-3964,-542,-45,45,-158984,43655,96246,7,13023,2688,-46957,364950,166,-276,2476,9370
2878,3635,-1,2,0,-1,14,1,0,2,1,243,2872.000,6.000,1128558,17376,-786,-3992,-549,-41,42,-158257,44257,95927,7,13022,2683,-46950,365001,165,-276,2475,9368
2878,3635,0,-4,1,-1,1,-1,0,4,1,243,2872.000,6.000,1128558,17376,-786,-3992,-549,-41,42,-158257,44257,95927,7,13022,2683,-46950,365001,165,-276,2475,9368
2880,3636,0,-5,0,-4,8,-5,-2,-1,1,244,2884.000,-4.000,1128569,17296,-826,-4022,-535,-43,53,-157517,44854,95593,7,13024,2684,-46954,365050,165,-276,2475,9368
2880,3636,1,4,0,1,13,3,1,-4,1,244,2884.000,-4.000,1128569,17296,-826,-4022,-535,-43,53,-157517,44854,95593,7,13024,2684,-46954,365050,165,-276,2475,9368
2893,3649,3,1,-1,1,22,1,1,-1,1,245,2895.000,-2.000,1128580,17368,-796,-3960,-537,-41,47,-156764,45449,95245,7,13020,2681,-46950,365101,165,-275,2474,9367
2893,3649,1,-3,-1,0,2,-4,-2,1,1,245,2895.000,-2.000,1128580,17368,-796,-3960,-537,-41,47,-156764,45449,95245,7,13020,2681,-46950,365101,165,-275,2474,9367
2895,3652,-1,-5,1,-2,8,-7,-1,-4,1,245,2895.000,0.000,1128580,17368,-796,-3960,-537,-41,47,-156764,45449,95245,7,13020,2681,-46950,365101,165,-275,2474,9367
2895,3652,-1,2,0,-1,20,4,-1,1,1,245,2895.000,0.000,1128580,17368,-796,-3960,-537,-41,47,-156764,45449,95245,7,13020,2681,-46950,365101,165,-275,2474,9367
2916,3673,-1,2,0,1,15,0,-1,-1,1,247,2917.000,-1.000,1128602,17326,-786,-4004,-540,-54,40,-155215,46631,94503,7,13026,2674,-46944,365195,165,-276,2472,9365
2916,3673,-1,-1,1,0,-3,-2,1,-4,1,247,2917.000,-1.000,1128602,17326,-786,-4004,-540,-54,40,-155215,46631,94503,7,13026,2674,-46944,365195,165,-276,2472,9365
2917,3674,-3,-6,-2,-1,6,-5,-2,-4,1,247,2917.000,0.000,1128602,17326,-786,-4004,-540,-54,40,-155215,46631,94503,7,13026,2674,-46944,365195,165,-276,2472,9365
2917,3674,-2,1,-2,0,12,1,0,1,1,247,2917.000,0.000,1128602,17326,-786,-4004,-540,-54,40,-155215,46631,94503,7,13026,2674,-46944,365195,165,-276,2472,9365
2938,3695,1,3,-2,1,15,5,2,0,1,249,2939.000,-1.000,1128625,17330,-820,-4070,-537,-39,48,-153608,47798,93695,7,13031,2675,-46952,365283,166,-277,2472,9366
2938,3695,1,-2,-1,0,2,-4,-2,1,1,249,2939.000,-1.000,1128625,17330,-820,-4070,-537,-39,48,-153608,47798,93695,7,13031,2675,-46952,365283,166,-277,2472,9366
2940,3697,-2,-6,-2,-5,6,-6,-1,-4,1,249,2939.000,1.000,1128625,17330,-820,-4070,-537,-39,48,-153608,47798,93695,7,13031,2675,-46952,365283,166,-277,2472,9366
2940,3697,-2,2,0,1,12,2,1,0,1,249,2939.000,1.000,1128625,17330,-820,-4070,-537,-39,48,-153608,47798,93695,7,13031,2675,-46952,365283,166,-277,2472,9366
2961,3717,-1,1,1,-1,21,5,0,2,1,251,2961.000,0.000,1128647,17382,-830,-4060,-539,-44,52,-151938,48951,92821,7,13039,2674,-46955,365371,165,-279,2471,9366
2961,3717,-3,0,1,1,-7,-4,-1,-1,1,251,2961.000,0.000,1128647,17382,-830,-4060,-539,-44,52,-151938,48951,92821,7,13039,2674,-46955,365371,165,-279,2471,9366
2962,3719,6,-6,1,-3,10,-6,-3,-3,1,251,2961.000,1.000,1128647,17382,-830,-4060,-539,-44,52,-151938,48951,92821,7,13039,2674,-46955,365371,165,-279,2471,9366
2962,3719,-1,3,-1,1,20,1,1,1,1,251,2961.000,1.000,1128647,17382,-830,-4060,-539,-44,52,-151938,48951,92821,7,13039,2674,-46955,365371,165,-279,2471,9366
2976,3732,-1,3,-2,1,13,2,-2,-2,1,252,2973.000,3.000,1128658,17358,-850,-4032,-533,-45,49,-151077,49521,92355,7,13040,2676,-46963,365414,165,-279,2472,9366
2976,3732,-1,-2,-1,0,-9,-2,-1,1,1,252,2973.000,3.000,1128658,17358,-850,-4032,-533,-45,49,-151077,49521,92355,7,13040,2676,-46963,365414,165,-279,2472,9366
2977,3734,-2,-8,-2,-4,9,-6,-3,-4,1,252,2973.000,4.000,1128658,17358,-850,-4032,-533,-45,49,-151077,49521,92355,7,13040,2676,-46963,365414,165,-279,2472,9366
2977,3734,1,1,0,-3,10,2,-3,0,1,252,2973.000,4.000,1128658,17358,-850,-4032,-533,-45,49,-151077,49521,92355,7,13040,2676,-46963,365414,165,-279,2472,9366
2999,3756,1,2,0,0,11,2,-1,1,1,254,2995.000,4.000,1128680,17394,-834,-4038,-540,-46,42,-149302,50648,91369,7,13039,2675,-46975,365505,165,-278,2471,9366
2999,3756,-1,-3,0,-1,-9,-2,1,1,1,254,2995.000,4.000,1128680,17394,-834,-4038,-540,-46,42,-149302,50648,91369,7,13039,2675,-46975,365505,165,-278,2471,9366
3000,3757,-3,-6,-2,-2,8,-4,-2,-5,1,254,2995.000,5.000,1128680,17394,-834,-4038,-540,-46,42,-149302,50648,91369,7,13039,2675,-46975,365505,165,-278,2471,9366
3000,3757,1,3,1,1,10,2,2,-4,1,254,2995.000,5.000,1128680,17394,-834,-4038,-540,-46,42,-149302,50648,91369,7,13039,2675,-46975,365505,165,-278,2471,9366
3013,3770,-2,2,1,1,24,5,-1,1,1,256,3017.000,-4.000,1128702,17318,-818,-4032,-539,-40,46,-147451,51757,90301,7,13044,2673,-46983,365597,165,-279,2471,9366
3013,3770,1,-3,2,3,-12,-4,-2,1,1,256,3017.000,-4.000,1128702,17318,-818,-4032,-539,-40,46,-147451,51757,90301,7,13044,2673,-46983,365597,165,-279,2471,9366
3019,3776,2,-4,0,-2,9,-8,0,-2,1,256,3017.000,2.000,1128702,17318,-818,-4032,-539,-40,46,-147451,51757,90301,7,13044,2673,-46983,365597,165,-279,2471,9366
3020,3776,0,2,0,0,14,2,0,-2,1,256,3017.000,3.000,1128702,17318,-818,-4032,-539,-40,46,-147451,51757,90301,7,13044,2673,-46983,365597,165,-279,2471,9366
3036,3793,-2,1,-1,0,10,0,0,1,1,258,3039.000,-3.000,1128725,17340,-822,-4040,-533,-42,45,-145518,52844,89147,7,13046,2671,-46988,365687,165,-279,2470,9365
3036,3793,0,-3,1,0,-13,-1,-2,4,1,258,3039.000,-3.000,1128725,17340,-822,-4040,-533,-42,45,-145518,52844,89147,7,13046,2671,-46988,365687,165,-279,2470,9365
3042,3798,-1,-6,0,-1,8,-5,-1,-2,1,258,3039.000,3.000,1128725,17340,-822,-4040,-533,-42,45,-145518,52844,89147,7,13046,2671,-46988,365687,165,-279,2470,9365
3042,3798,1,4,-1,1,10,2,1,-1,1,258,3039.000,3.000,1128725,17340,-822,-4040,-533,-42,45,-145518,52844,89147,7,13046,2671,-46988,365687,165,-279,2470,9365
3058,3814,2,2,1,1,9,2,-1,0,1,260,3062.000,-4.000,1128747,17338,-848,-4010,-544,-48,46,-143498,53907,87903,7,13053,2668,-46991,365765,165,-281,2469,9365
3058,3814,-1,-5,-3,-1,-17,-4,-4,-2,1,260,3062.000,-4.000,1128747,17338,-848,-4010,-544,-48,46,-143498,53907,87903,7,13053,2668,-46991,365765,165,-281,2469,9365
3060,3817,-3,-6,-1,-4,6,-4,-1,-5,1,260,3062.000,-2.000,1128747,17338,-848,-4010,-544,-48,46,-143498,53907,87903,7,13053,2668,-46991,365765,165,-281,2469,9365
3060,3817,-1,3,-1,0,14,2,0,3,1,260,3062.000,-2.000,1128747,17338,-848,-4010,-544,-48,46,-143498,53907,87903,7,13053,2668,-46991,365765,165,-281,2469,9365
3073,3829,0,3,-2,-1,30,3,1,1,1,261,3073.000,0.000,1128758,17350,-820,-4012,-543,-45,48,-142453,54429,87244,7,13053,2667,-46998,365804,165,-281,2469,9365
3073,3829,0,-4,-1,0,-11,-4,-2,1,1,261,3073.000,0.000,1128758,17350,-820,-4012,-543,-45,48,-142453,54429,87244,7,13053,2667,-46998,365804,165,-281,2469,9365
3079,3836,0,-4,1,1,9,-4,-3,-7,1,262,3084.000,-5.000,1128769,17342,-804,-4062,-541,-49,46,-141383,54944,86560,7,13058,2665,-46999,365844,165,-281,2469,9366
3079,3836,2,2,1,0,11,4,-1,-2,1,262,3084.000,-5.000,1128769,17342,-804,-4062,-541,-49,46,-141383,54944,86560,7,13058,2665,-46999,365844,165,-281,2469,9366
3096,3852,1,2,-1,-1,5,2,2,2,1,263,3095.000,1.000,1128780,17304,-854,-3944,-540,-38,48,-140288,55452,85850,7,13052,2668,-47015,365879,165,-280,2469,9365
3096,3852,1,-3,1,-1,-8,-4,0,2,1,263,3095.000,1.000,1128780,17304,-854,-3944,-540,-38,48,-140288,55452,85850,7,13052,2668,-47015,365879,165,-280,2469,9365
3097,3854,-2,-3,-1,-5,9,-3,-1,-2,1,263,3095.000,2.000,1128780,17304,-854,-3944,-540,-38,48,-140288,55452,85850,7,13052,2668,-47015,365879,165,-280,2469,9365
3097,3854,-2,1,-1,-1,14,3,0,2,1,263,3095.000,2.000,1128780,17304,-854,-3944,-540,-38,48,-140288,55452,85850,7,13052,2668,-47015,365879,165,-280,2469,9365
3119,3875,0,2,0,1,10,1,-2,3,1,265,3117.000,2.000,1128803,17364,-882,-3908,-542,-39,52,-138021,56444,84349,7,13042,2678,-47043,365973,165,-278,2471,9365
3119,3875,-1,-6,0,-2,-13,-4,-2,-1,1,265,3117.000,2.000,1128803,17364,-882,-3908,-542,-39,52,-138021,56444,84349,7,13042,2678,-47043,365973,165,-278,2471,9365
3120,3877,-2,-5,-1,-2,8,-5,-1,-3,1,265,3117.000,3.000,1128803,17364,-882,-3908,-542,-39,52,-138021,56444,84349,7,13042,2678,-47043,365973,165,-278,2471,9365
3120,3877,-1,2,-1,2,12,3,-1,-1,1,265,3117.000,3.000,1128803,17364,-882,-3908,-542,-39,52,-138021,56444,84349,7,13042,2678,-47043,365973,165,-278,2471,9365
3133,3889,-3,3,-1,-1,21,3,0,2,1,266,3129.000,4.000,1128814,17392,-842,-4042,-537,-44,54,-136846,56927,83557,7,13044,2680,-47050,366027,165,-278,2471,9365
3133,3889,-3,-2,0,0,-9,-5,1,-1,1,266,3129.000,4.000,1128814,17392,-842,-4042,-537,-44,54,-136846,56927,83557,7,13044,2680,-47050,366027,165,-278,2471,9365
3139,3896,-1,-4,0,-4,9,-2,1,-5,1,267,3140.000,-1.000,1128825,17316,-850,-4128,-541,-52,54,-135643,57402,82737,7,13054,2682,-47057,366081,165,-280,2472,9366
3139,3896,2,3,-2,-1,9,2,-1,-2,1,267,3140.000,-1.000,1128825,17316,-850,-4128,-541,-52,54,-135643,57402,82737,7,13054,2682,-47057,366081,165,-280,2472,9366
3156,3912,1,2,-3,0,0,2,-2,-1,1,268,3151.000,5.000,1128836,17368,-864,-4046,-536,-48,47,-134410,57867,81886,7,13057,2684,-47064,366137,165,-280,2473,9366
3156,3912,1,-6,-1,-1,-15,-6,-1,-1,1,268,3151.000,5.000,1128836,17368,-864,-4046,-536,-48,47,-134410,57867,81886,7,13057,2684,-47064,366137,165,-280,2473,9366
3157,3913,-2,-3,1,-2,11,-2,0,-1,1,269,3162.000,-5.000,1128847,17368,-840,-4008,-541,-43,41,-133148,58324,81004,7,13056,2684,-47071,366194,165,-280,2473,9366
3157,3913,1,4,0,0,5,2,2,4,1,269,3162.000,-5.000,1128847,17368,-840,-4008,-541,-43,41,-133148,58324,81004,7,13056,2684,-47071,366194,165,-280,2473,9366
3186,3942,0,2,0,0,4,2,1,3,1,271,3184.000,2.000,1128870,17332,-848,-4008,-542,-42,48,-130533,59205,79148,7,13054,2689,-47087,366310,166,-279,2473,9366
